,emg1,emg2,emg3,emg4,emg5,emg6,emg7,emg8
4.5510478019714355,-0.007874015748031496,-0.015748031496062992,0.0,0.0,0.007874015748031496,-0.007874015748031496,0.0,0.0
4.5512237548828125,-0.007874015748031496,-0.007874015748031496,-0.007874015748031496,0.0,-0.015748031496062992,-0.023622047244094488,-0.007874015748031496,-0.015748031496062992
4.5513997077941895,-0.015748031496062992,0.0,-0.007874015748031496,-0.007874015748031496,-0.007874015748031496,-0.015748031496062992,-0.007874015748031496,0.0
4.551892280578613,0.0,0.0,0.0,-0.007874015748031496,-0.007874015748031496,-0.023622047244094488,0.0,0.0
4.552384853363037,0.0,0.007874015748031496,-0.007874015748031496,-0.015748031496062992,-0.015748031496062992,-0.015748031496062992,0.0,0.0
4.552635431289673,0.0,-0.015748031496062992,-0.015748031496062992,0.0,0.0,0.007874015748031496,-0.023622047244094488,-0.007874015748031496
4.552886009216309,-0.007874015748031496,-0.007874015748031496,-0.015748031496062992,0.0,-0.015748031496062992,-0.015748031496062992,-0.015748031496062992,-0.023622047244094488
4.55325186252594,0.0,-0.007874015748031496,-0.015748031496062992,-0.015748031496062992,-0.023622047244094488,-0.015748031496062992,-0.023622047244094488,-0.023622047244094488
4.553617715835571,-0.015748031496062992,-0.023622047244094488,-0.023622047244094488,0.0,-0.023622047244094488,-0.015748031496062992,-0.023622047244094488,-0.015748031496062992
4.553778290748596,-0.007874015748031496,-0.015748031496062992,-0.007874015748031496,-0.007874015748031496,-0.015748031496062992,-0.023622047244094488,-0.007874015748031496,-0.007874015748031496
4.553938865661621,-0.007874015748031496,-0.023622047244094488,-0.023622047244094488,-0.007874015748031496,0.0,-0.015748031496062992,-0.015748031496062992,-0.007874015748031496
4.554348826408386,-0.015748031496062992,-0.015748031496062992,-0.015748031496062992,-0.007874015748031496,0.0,0.007874015748031496,-0.015748031496062992,-0.007874015748031496
4.554758787155151,-0.015748031496062992,-0.023622047244094488,-0.023622047244094488,-0.015748031496062992,-0.007874015748031496,-0.015748031496062992,-0.007874015748031496,-0.023622047244094488
4.554940342903137,-0.023622047244094488,-0.015748031496062992,-0.015748031496062992,-0.007874015748031496,-0.015748031496062992,-0.015748031496062992,0.0,-0.007874015748031496
4.555121898651123,-0.031496062992125984,-0.015748031496062992,-0.015748031496062992,-0.015748031496062992,-0.023622047244094488,0.0,-0.007874015748031496,-0.007874015748031496
4.5555548667907715,-0.007874015748031496,-0.007874015748031496,-0.007874015748031496,-0.015748031496062992,-0.015748031496062992,-0.007874015748031496,-0.007874015748031496,-0.007874015748031496
4.55598783493042,-0.015748031496062992,-0.007874015748031496,-0.007874015748031496,-0.015748031496062992,-0.015748031496062992,0.0,-0.015748031496062992,-0.015748031496062992
4.556143879890442,-0.015748031496062992,-0.007874015748031496,-0.015748031496062992,0.007874015748031496,-0.007874015748031496,-0.007874015748031496,-0.007874015748031496,-0.015748031496062992
4.556299924850464,-0.007874015748031496,-0.015748031496062992,0.007874015748031496,-0.015748031496062992,-0.007874015748031496,-0.007874015748031496,-0.015748031496062992,-0.015748031496062992
4.5567543506622314,-0.015748031496062992,-0.015748031496062992,-0.015748031496062992,0.007874015748031496,-0.007874015748031496,-0.023622047244094488,-0.007874015748031496,0.0
4.557208776473999,-0.007874015748031496,-0.015748031496062992,-0.007874015748031496,0.0,-0.007874015748031496,-0.007874015748031496,-0.015748031496062992,-0.015748031496062992
4.557424306869507,-0.007874015748031496,-0.007874015748031496,-0.007874015748031496,-0.031496062992125984,-0.007874015748031496,-0.007874015748031496,0.0,-0.007874015748031496
4.557639837265015,-0.007874015748031496,-0.007874015748031496,-0.015748031496062992,-0.007874015748031496,-0.015748031496062992,-0.015748031496062992,0.0,-0.007874015748031496
4.55806577205658,0.0,-0.023622047244094488,-0.015748031496062992,-0.015748031496062992,-0.007874015748031496,0.0,-0.015748031496062992,-0.023622047244094488
4.5584917068481445,-0.007874015748031496,-0.007874015748031496,0.0,0.015748031496062992,-0.007874015748031496,-0.007874015748031496,0.0,-0.007874015748031496
4.558668255805969,-0.007874015748031496,-0.007874015748031496,0.007874015748031496,0.0,-0.007874015748031496,0.0,-0.007874015748031496,-0.015748031496062992
4.558844804763794,0.0,0.0,-0.007874015748031496,-0.007874015748031496,0.007874015748031496,0.0,0.007874015748031496,-0.007874015748031496
4.559215784072876,-0.007874015748031496,0.0,-0.007874015748031496,0.0,-0.007874015748031496,0.0,0.0,-0.023622047244094488
4.559586763381958,-0.007874015748031496,-0.015748031496062992,0.0,-0.007874015748031496,0.007874015748031496,-0.015748031496062992,-0.015748031496062992,-0.015748031496062992
4.5598227977752686,0.0,0.0,-0.007874015748031496,-0.023622047244094488,-0.007874015748031496,-0.007874015748031496,-0.015748031496062992,-0.007874015748031496
4.560058832168579,0.0,-0.023622047244094488,-0.015748031496062992,0.0,0.0,-0.015748031496062992,-0.007874015748031496,-0.007874015748031496
4.560571789741516,-0.007874015748031496,0.0,-0.007874015748031496,0.0,-0.015748031496062992,-0.007874015748031496,-0.007874015748031496,-0.007874015748031496
4.561084747314453,-0.015748031496062992,-0.007874015748031496,0.0,0.0,0.0,0.0,0.0,0.0
4.561339259147644,-0.007874015748031496,-0.007874015748031496,0.0,0.0,0.007874015748031496,-0.007874015748031496,-0.023622047244094488,0.0
4.561593770980835,-0.007874015748031496,-0.007874015748031496,0.0,-0.007874015748031496,0.0,0.0,-0.015748031496062992,-0.007874015748031496
4.562047719955444,-0.015748031496062992,-0.015748031496062992,-0.015748031496062992,-0.023622047244094488,-0.007874015748031496,0.0,0.015748031496062992,0.023622047244094488
4.562501668930054,0.0,-0.015748031496062992,-0.015748031496062992,0.0,0.007874015748031496,0.015748031496062992,0.015748031496062992,0.023622047244094488
4.562663793563843,-0.015748031496062992,0.0,0.023622047244094488,0.007874015748031496,0.0,0.007874015748031496,0.007874015748031496,0.0
4.562825918197632,0.007874015748031496,0.015748031496062992,0.007874015748031496,0.007874015748031496,0.007874015748031496,0.0,0.007874015748031496,0.0
4.563306927680969,0.007874015748031496,0.007874015748031496,0.007874015748031496,0.007874015748031496,0.0,-0.007874015748031496,-0.007874015748031496,-0.007874015748031496
4.563787937164307,0.007874015748031496,0.007874015748031496,0.0,-0.007874015748031496,-0.015748031496062992,-0.015748031496062992,0.0,-0.007874015748031496
4.563970327377319,0.0,0.0,-0.015748031496062992,-0.007874015748031496,-0.015748031496062992,0.0,0.0,-0.007874015748031496
4.564152717590332,0.007874015748031496,0.0,0.007874015748031496,-0.007874015748031496,-0.007874015748031496,-0.007874015748031496,-0.015748031496062992,0.0
4.56475830078125,-0.015748031496062992,-0.015748031496062992,0.007874015748031496,-0.007874015748031496,0.007874015748031496,-0.007874015748031496,-0.015748031496062992,-0.007874015748031496
4.565363883972168,-0.015748031496062992,-0.007874015748031496,0.007874015748031496,0.0,-0.007874015748031496,-0.007874015748031496,0.0,0.007874015748031496
4.565534830093384,-0.007874015748031496,-0.007874015748031496,-0.023622047244094488,0.0,0.0,-0.015748031496062992,0.0,0.0
4.5657057762146,-0.007874015748031496,-0.015748031496062992,-0.007874015748031496,-0.007874015748031496,-0.007874015748031496,0.0,0.0,-0.007874015748031496
4.566157221794128,0.0,-0.007874015748031496,-0.007874015748031496,0.0,0.0,-0.007874015748031496,0.007874015748031496,-0.007874015748031496
4.566608667373657,-0.015748031496062992,0.007874015748031496,0.0,-0.015748031496062992,-0.007874015748031496,-0.007874015748031496,-0.015748031496062992,0.0
4.566781759262085,-0.007874015748031496,-0.007874015748031496,0.0,-0.007874015748031496,0.0,-0.015748031496062992,0.015748031496062992,-0.015748031496062992
4.566954851150513,0.0,0.0,-0.015748031496062992,0.0,0.0,0.0,0.0,0.0
4.56747579574585,-0.007874015748031496,-0.007874015748031496,-0.007874015748031496,0.0,-0.023622047244094488,0.007874015748031496,-0.015748031496062992,-0.007874015748031496
4.5679967403411865,0.0,0.0,-0.007874015748031496,-0.007874015748031496,-0.007874015748031496,-0.007874015748031496,-0.015748031496062992,-0.015748031496062992
4.568205237388611,0.0,-0.007874015748031496,0.0,0.0,0.0,0.0,0.0,0.0
4.568413734436035,-0.015748031496062992,0.0,-0.007874015748031496,0.0,-0.015748031496062992,-0.015748031496062992,-0.007874015748031496,-0.015748031496062992
4.5688382387161255,0.0,-0.007874015748031496,0.007874015748031496,-0.007874015748031496,0.0,-0.007874015748031496,-0.007874015748031496,-0.007874015748031496
4.569262742996216,0.0,-0.015748031496062992,-0.023622047244094488,-0.023622047244094488,-0.007874015748031496,-0.007874015748031496,-0.015748031496062992,-0.023622047244094488
4.569457769393921,0.0,-0.007874015748031496,-0.007874015748031496,0.0,-0.015748031496062992,-0.007874015748031496,-0.015748031496062992,-0.007874015748031496
4.569652795791626,0.0,0.0,-0.007874015748031496,-0.007874015748031496,0.007874015748031496,-0.015748031496062992,-0.007874015748031496,-0.023622047244094488
4.570186376571655,0.0,0.0,0.0,-0.007874015748031496,0.0,-0.007874015748031496,-0.015748031496062992,-0.007874015748031496
4.570719957351685,0.0,0.0,-0.015748031496062992,0.0,-0.007874015748031496,0.0,-0.007874015748031496,-0.007874015748031496
4.570907473564148,0.0,-0.015748031496062992,-0.007874015748031496,0.0,-0.007874015748031496,0.0,-0.015748031496062992,-0.007874015748031496
4.571094989776611,0.0,-0.007874015748031496,-0.007874015748031496,0.0,0.0,0.007874015748031496,0.0,-0.015748031496062992
4.571652412414551,-0.007874015748031496,0.0,-0.007874015748031496,-0.007874015748031496,-0.007874015748031496,-0.007874015748031496,-0.007874015748031496,-0.007874015748031496
4.57220983505249,0.007874015748031496,-0.023622047244094488,0.0,-0.015748031496062992,-0.007874015748031496,-0.007874015748031496,0.007874015748031496,-0.007874015748031496
4.572370886802673,0.0,-0.007874015748031496,0.007874015748031496,0.0,-0.007874015748031496,-0.015748031496062992,-0.007874015748031496,-0.007874015748031496
4.5725319385528564,-0.007874015748031496,0.0,-0.023622047244094488,0.0,-0.007874015748031496,-0.015748031496062992,-0.007874015748031496,0.0
4.572970390319824,-0.007874015748031496,-0.007874015748031496,0.0,0.0,0.007874015748031496,0.0,-0.007874015748031496,-0.007874015748031496
4.573408842086792,0.0,-0.015748031496062992,0.0,0.0,-0.007874015748031496,-0.007874015748031496,-0.007874015748031496,-0.007874015748031496
4.573637366294861,-0.007874015748031496,-0.007874015748031496,-0.023622047244094488,0.0,-0.015748031496062992,-0.015748031496062992,-0.015748031496062992,0.0
4.57386589050293,0.0,-0.007874015748031496,-0.007874015748031496,-0.007874015748031496,-0.015748031496062992,0.0,0.0,-0.007874015748031496
4.574327826499939,0.0,-0.015748031496062992,0.0,0.0,-0.007874015748031496,-0.007874015748031496,-0.007874015748031496,0.0
4.574789762496948,0.0,0.007874015748031496,-0.023622047244094488,-0.015748031496062992,-0.007874015748031496,0.0,-0.015748031496062992,-0.015748031496062992
4.574998259544373,-0.007874015748031496,-0.007874015748031496,-0.007874015748031496,-0.015748031496062992,0.0,0.0,0.0,-0.007874015748031496
4.575206756591797,-0.007874015748031496,-0.015748031496062992,0.007874015748031496,-0.007874015748031496,-0.015748031496062992,-0.007874015748031496,0.007874015748031496,0.007874015748031496
4.575682282447815,0.0,0.0,-0.015748031496062992,-0.007874015748031496,-0.015748031496062992,0.0,0.007874015748031496,0.0
4.576157808303833,-0.015748031496062992,0.0,-0.007874015748031496,0.0,-0.007874015748031496,0.0,-0.007874015748031496,-0.007874015748031496
4.5763514041900635,0.007874015748031496,0.0,0.0,-0.007874015748031496,0.0,-0.015748031496062992,0.0,-0.007874015748031496
4.576545000076294,-0.007874015748031496,-0.023622047244094488,-0.007874015748031496,0.0,-0.007874015748031496,-0.007874015748031496,-0.015748031496062992,-0.007874015748031496
4.576993823051453,-0.007874015748031496,0.0,-0.007874015748031496,-0.007874015748031496,0.0,-0.007874015748031496,-0.007874015748031496,0.0
4.577442646026611,0.0,0.0,0.0,-0.015748031496062992,0.0,0.007874015748031496,-0.007874015748031496,-0.007874015748031496
4.577611207962036,0.0,-0.015748031496062992,-0.007874015748031496,0.0,0.0,0.0,-0.015748031496062992,-0.007874015748031496
4.577779769897461,-0.007874015748031496,0.0,0.0,-0.015748031496062992,-0.007874015748031496,-0.015748031496062992,-0.023622047244094488,-0.007874015748031496
4.578170299530029,-0.007874015748031496,-0.015748031496062992,-0.015748031496062992,-0.015748031496062992,-0.015748031496062992,-0.007874015748031496,0.0,-0.015748031496062992
4.578560829162598,-0.007874015748031496,-0.007874015748031496,-0.007874015748031496,0.007874015748031496,0.007874015748031496,-0.015748031496062992,-0.007874015748031496,-0.007874015748031496
4.5787513256073,-0.007874015748031496,-0.007874015748031496,-0.015748031496062992,-0.007874015748031496,-0.007874015748031496,0.0,-0.007874015748031496,0.0
4.578941822052002,-0.015748031496062992,-0.007874015748031496,0.0,-0.007874015748031496,-0.007874015748031496,-0.007874015748031496,0.0,-0.007874015748031496
4.579423308372498,-0.007874015748031496,-0.007874015748031496,0.0,0.0,0.0,-0.007874015748031496,-0.007874015748031496,0.0
4.579904794692993,-0.007874015748031496,-0.015748031496062992,0.007874015748031496,0.0,-0.007874015748031496,0.0,0.0,0.007874015748031496
4.580105304718018,0.0,-0.015748031496062992,-0.007874015748031496,-0.015748031496062992,0.0,-0.007874015748031496,0.0,-0.007874015748031496
4.580305814743042,-0.007874015748031496,-0.007874015748031496,-0.023622047244094488,0.0,-0.015748031496062992,0.0,0.0,-0.007874015748031496
4.5807517766952515,0.0,0.007874015748031496,-0.007874015748031496,0.0,-0.007874015748031496,-0.007874015748031496,0.0,-0.007874015748031496
4.581197738647461,-0.007874015748031496,0.0,-0.007874015748031496,-0.015748031496062992,-0.007874015748031496,0.0,-0.007874015748031496,0.0
4.581370234489441,0.007874015748031496,0.007874015748031496,-0.007874015748031496,-0.007874015748031496,-0.007874015748031496,0.0,0.0,0.0
4.581542730331421,-0.007874015748031496,-0.015748031496062992,0.0,0.0,-0.007874015748031496,0.007874015748031496,-0.007874015748031496,0.0
4.581985712051392,-0.015748031496062992,-0.007874015748031496,0.0,-0.007874015748031496,0.0,-0.015748031496062992,-0.015748031496062992,-0.031496062992125984
4.582428693771362,-0.007874015748031496,-0.007874015748031496,-0.007874015748031496,-0.007874015748031496,-0.007874015748031496,-0.015748031496062992,0.0,-0.023622047244094488
4.582634687423706,-0.007874015748031496,0.0,0.0,0.0,0.0,-0.007874015748031496,-0.007874015748031496,-0.015748031496062992
4.58284068107605,0.007874015748031496,0.0,-0.007874015748031496,-0.007874015748031496,0.0,-0.015748031496062992,-0.007874015748031496,0.0
4.583251237869263,0.007874015748031496,-0.015748031496062992,-0.007874015748031496,-0.007874015748031496,0.0,0.007874015748031496,-0.007874015748031496,0.0
4.583661794662476,0.0,-0.007874015748031496,-0.007874015748031496,-0.007874015748031496,-0.007874015748031496,0.007874015748031496,0.0,-0.007874015748031496
4.583897233009338,-0.015748031496062992,-0.007874015748031496,-0.015748031496062992,-0.007874015748031496,-0.007874015748031496,-0.007874015748031496,-0.015748031496062992,0.0
4.584132671356201,0.0,0.0,0.0,-0.015748031496062992,-0.007874015748031496,-0.007874015748031496,-0.007874015748031496,-0.007874015748031496
4.584667205810547,-0.007874015748031496,0.0,0.0,0.007874015748031496,-0.015748031496062992,-0.007874015748031496,0.0,-0.007874015748031496
4.585201740264893,-0.015748031496062992,0.0,-0.007874015748031496,-0.007874015748031496,0.0,0.0,-0.015748031496062992,-0.015748031496062992
4.586210250854492,0.007874015748031496,-0.015748031496062992,0.007874015748031496,-0.007874015748031496,-0.015748031496062992,0.0,-0.015748031496062992,-0.007874015748031496
4.587218761444092,0.0,0.007874015748031496,-0.007874015748031496,0.0,0.007874015748031496,-0.007874015748031496,-0.007874015748031496,0.0
4.587670207023621,0.0,-0.007874015748031496,-0.015748031496062992,-0.015748031496062992,0.0,-0.015748031496062992,-0.007874015748031496,0.0
4.588121652603149,-0.007874015748031496,0.0,0.007874015748031496,0.007874015748031496,-0.007874015748031496,-0.007874015748031496,0.0,0.0
4.588371157646179,-0.023622047244094488,0.0,-0.015748031496062992,0.007874015748031496,0.0,-0.015748031496062992,0.0,-0.007874015748031496
4.588620662689209,-0.007874015748031496,-0.007874015748031496,-0.007874015748031496,-0.015748031496062992,-0.015748031496062992,0.0,-0.015748031496062992,-0.007874015748031496
4.589096665382385,-0.007874015748031496,-0.007874015748031496,-0.007874015748031496,-0.007874015748031496,-0.015748031496062992,-0.015748031496062992,-0.007874015748031496,-0.007874015748031496
4.5895726680755615,-0.007874015748031496,0.007874015748031496,0.0,-0.007874015748031496,-0.007874015748031496,-0.015748031496062992,-0.007874015748031496,-0.015748031496062992
4.589800238609314,-0.015748031496062992,-0.007874015748031496,0.0,-0.023622047244094488,-0.015748031496062992,0.0,-0.007874015748031496,0.0
4.590027809143066,-0.007874015748031496,-0.023622047244094488,0.0,0.0,0.0,0.0,0.0,0.0
4.59044075012207,-0.007874015748031496,-0.007874015748031496,-0.015748031496062992,0.007874015748031496,0.0,0.0,-0.015748031496062992,-0.007874015748031496
4.590853691101074,0.0,-0.007874015748031496,0.0,-0.015748031496062992,0.0,0.0,0.007874015748031496,0.0
4.591020226478577,0.0,-0.007874015748031496,0.0,0.0,-0.015748031496062992,-0.007874015748031496,-0.015748031496062992,-0.015748031496062992
4.591186761856079,-0.007874015748031496,0.0,-0.015748031496062992,-0.007874015748031496,-0.007874015748031496,-0.007874015748031496,0.007874015748031496,-0.007874015748031496
4.591615319252014,0.0,-0.015748031496062992,0.0,-0.023622047244094488,-0.007874015748031496,-0.007874015748031496,-0.023622047244094488,0.0
4.592043876647949,-0.015748031496062992,-0.007874015748031496,-0.007874015748031496,-0.007874015748031496,-0.007874015748031496,-0.007874015748031496,0.0,-0.015748031496062992
4.592260837554932,0.0,-0.007874015748031496,-0.007874015748031496,-0.007874015748031496,0.007874015748031496,-0.015748031496062992,-0.023622047244094488,-0.007874015748031496
4.592477798461914,-0.015748031496062992,0.0,-0.015748031496062992,-0.007874015748031496,0.0,-0.007874015748031496,-0.023622047244094488,-0.007874015748031496
4.592895746231079,0.007874015748031496,-0.007874015748031496,-0.007874015748031496,0.0,-0.015748031496062992,0.0,0.0,0.015748031496062992
4.593313694000244,-0.007874015748031496,-0.007874015748031496,-0.015748031496062992,-0.015748031496062992,-0.023622047244094488,0.0,-0.031496062992125984,-0.007874015748031496
4.5935633182525635,0.0,0.0,-0.007874015748031496,-0.007874015748031496,-0.007874015748031496,0.0,-0.007874015748031496,-0.023622047244094488
4.593812942504883,-0.007874015748031496,0.0,0.0,-0.007874015748031496,-0.015748031496062992,0.0,0.0,-0.023622047244094488
4.5942147970199585,-0.007874015748031496,-0.007874015748031496,0.0,0.007874015748031496,-0.015748031496062992,0.007874015748031496,-0.007874015748031496,0.0
4.594616651535034,0.0,-0.007874015748031496,0.0,0.007874015748031496,-0.007874015748031496,-0.015748031496062992,0.0,0.007874015748031496
4.5947816371917725,-0.023622047244094488,-0.007874015748031496,-0.007874015748031496,-0.007874015748031496,0.0,0.007874015748031496,0.0,0.007874015748031496
4.594946622848511,-0.007874015748031496,0.0,0.007874015748031496,-0.007874015748031496,0.0,-0.015748031496062992,-0.015748031496062992,-0.007874015748031496
4.595432639122009,-0.015748031496062992,0.0,0.0,-0.015748031496062992,-0.015748031496062992,-0.007874015748031496,0.007874015748031496,-0.007874015748031496
4.595918655395508,-0.007874015748031496,0.0,-0.007874015748031496,0.0,-0.007874015748031496,-0.015748031496062992,-0.015748031496062992,0.007874015748031496
4.596140742301941,0.007874015748031496,-0.007874015748031496,0.0,0.0,-0.007874015748031496,0.0,-0.007874015748031496,-0.007874015748031496
4.596362829208374,-0.015748031496062992,0.0,-0.007874015748031496,-0.007874015748031496,0.0,-0.007874015748031496,-0.015748031496062992,0.007874015748031496
4.596744775772095,-0.007874015748031496,-0.015748031496062992,-0.007874015748031496,-0.015748031496062992,0.0,-0.007874015748031496,-0.007874015748031496,-0.007874015748031496
4.597126722335815,0.0,0.0,-0.007874015748031496,-0.007874015748031496,-0.007874015748031496,0.007874015748031496,-0.007874015748031496,-0.007874015748031496
4.597298741340637,-0.007874015748031496,-0.007874015748031496,-0.007874015748031496,-0.007874015748031496,-0.007874015748031496,-0.015748031496062992,0.0,0.0
4.597470760345459,-0.007874015748031496,-0.015748031496062992,-0.007874015748031496,-0.015748031496062992,0.007874015748031496,-0.007874015748031496,0.015748031496062992,-0.007874015748031496
4.597955346107483,0.0,-0.015748031496062992,-0.015748031496062992,0.0,-0.007874015748031496,0.015748031496062992,-0.007874015748031496,-0.007874015748031496
4.598439931869507,-0.007874015748031496,-0.007874015748031496,-0.007874015748031496,0.0,0.0,-0.007874015748031496,-0.007874015748031496,-0.007874015748031496
4.5987207889556885,-0.007874015748031496,0.0,-0.015748031496062992,-0.007874015748031496,0.0,-0.015748031496062992,-0.007874015748031496,0.0
4.59900164604187,0.0,0.0,-0.007874015748031496,0.0,-0.015748031496062992,0.0,-0.007874015748031496,-0.023622047244094488
4.599496126174927,0.0,0.0,0.007874015748031496,-0.015748031496062992,-0.007874015748031496,-0.007874015748031496,-0.007874015748031496,-0.007874015748031496
4.599990606307983,-0.007874015748031496,0.0,-0.007874015748031496,-0.015748031496062992,0.0,-0.015748031496062992,0.0,-0.007874015748031496
4.600210666656494,-0.007874015748031496,0.0,-0.007874015748031496,-0.015748031496062992,-0.007874015748031496,0.0,-0.007874015748031496,-0.007874015748031496
4.600430727005005,0.0,0.0,-0.007874015748031496,0.007874015748031496,0.0,-0.015748031496062992,-0.007874015748031496,0.007874015748031496
4.601017236709595,-0.031496062992125984,0.0,-0.007874015748031496,0.0,-0.007874015748031496,-0.007874015748031496,-0.015748031496062992,-0.007874015748031496
4.601603746414185,-0.007874015748031496,-0.007874015748031496,-0.007874015748031496,-0.007874015748031496,-0.007874015748031496,-0.007874015748031496,-0.007874015748031496,-0.015748031496062992
4.601848244667053,-0.007874015748031496,-0.007874015748031496,0.0,-0.015748031496062992,-0.007874015748031496,-0.007874015748031496,0.0,-0.007874015748031496
4.602092742919922,0.0,-0.007874015748031496,-0.007874015748031496,0.0,-0.007874015748031496,0.015748031496062992,-0.007874015748031496,0.0
4.602590203285217,0.0,0.0,-0.015748031496062992,-0.007874015748031496,0.0,0.0,-0.007874015748031496,-0.015748031496062992
4.603087663650513,0.0,-0.023622047244094488,0.0,-0.007874015748031496,-0.007874015748031496,0.0,-0.007874015748031496,-0.015748031496062992
4.603302240371704,-0.007874015748031496,-0.015748031496062992,0.007874015748031496,0.0,-0.015748031496062992,-0.007874015748031496,-0.007874015748031496,-0.007874015748031496
4.6035168170928955,-0.007874015748031496,0.0,0.0,-0.023622047244094488,-0.015748031496062992,-0.007874015748031496,0.0,-0.015748031496062992
4.603948354721069,-0.015748031496062992,-0.007874015748031496,-0.023622047244094488,0.007874015748031496,-0.015748031496062992,-0.007874015748031496,-0.007874015748031496,-0.007874015748031496
4.604379892349243,-0.015748031496062992,-0.007874015748031496,-0.015748031496062992,-0.007874015748031496,0.0,-0.007874015748031496,0.0,0.007874015748031496
4.604611873626709,0.0,-0.015748031496062992,-0.007874015748031496,-0.023622047244094488,-0.007874015748031496,0.0,-0.015748031496062992,-0.007874015748031496
4.604843854904175,-0.023622047244094488,-0.015748031496062992,0.0,0.0,-0.007874015748031496,0.0,-0.007874015748031496,-0.007874015748031496
4.605329751968384,0.0,0.0,-0.007874015748031496,-0.007874015748031496,-0.007874015748031496,-0.015748031496062992,-0.007874015748031496,0.0
4.605815649032593,-0.007874015748031496,-0.007874015748031496,-0.007874015748031496,-0.007874015748031496,-0.007874015748031496,-0.007874015748031496,-0.007874015748031496,-0.007874015748031496
4.606038212776184,-0.007874015748031496,-0.007874015748031496,-0.015748031496062992,0.0,0.0,-0.007874015748031496,-0.007874015748031496,-0.007874015748031496
4.606260776519775,0.0,-0.015748031496062992,-0.007874015748031496,-0.007874015748031496,-0.015748031496062992,-0.015748031496062992,-0.007874015748031496,-0.007874015748031496
4.606727719306946,-0.007874015748031496,-0.007874015748031496,-0.031496062992125984,-0.015748031496062992,0.0,-0.007874015748031496,0.0,-0.023622047244094488
4.607194662094116,-0.007874015748031496,-0.015748031496062992,-0.015748031496062992,-0.007874015748031496,-0.007874015748031496,-0.007874015748031496,-0.007874015748031496,0.0
4.607413172721863,-0.007874015748031496,0.0,-0.007874015748031496,-0.007874015748031496,-0.007874015748031496,0.007874015748031496,-0.007874015748031496,0.0
4.607631683349609,-0.007874015748031496,-0.015748031496062992,-0.007874015748031496,-0.007874015748031496,-0.007874015748031496,-0.007874015748031496,-0.015748031496062992,-0.023622047244094488
4.6081507205963135,-0.007874015748031496,0.0,-0.007874015748031496,-0.007874015748031496,-0.015748031496062992,0.0,0.007874015748031496,-0.007874015748031496
4.608669757843018,-0.007874015748031496,0.0,-0.007874015748031496,-0.007874015748031496,-0.007874015748031496,-0.007874015748031496,0.0,-0.015748031496062992
4.608863353729248,-0.007874015748031496,-0.007874015748031496,-0.015748031496062992,0.0,-0.007874015748031496,0.0,0.0,-0.007874015748031496
4.6090569496154785,0.0,0.0,-0.023622047244094488,-0.007874015748031496,0.0,-0.007874015748031496,-0.007874015748031496,0.0
4.609432339668274,-0.007874015748031496,-0.007874015748031496,0.015748031496062992,-0.015748031496062992,-0.007874015748031496,-0.007874015748031496,-0.015748031496062992,0.0
4.609807729721069,0.0,-0.007874015748031496,-0.015748031496062992,-0.007874015748031496,0.0,-0.015748031496062992,-0.015748031496062992,-0.015748031496062992
4.609988689422607,-0.015748031496062992,0.0,-0.007874015748031496,0.0,0.0,0.0,-0.015748031496062992,-0.023622047244094488
4.6101696491241455,-0.015748031496062992,-0.007874015748031496,-0.015748031496062992,-0.007874015748031496,-0.007874015748031496,-0.007874015748031496,0.007874015748031496,-0.015748031496062992
4.610530257225037,0.007874015748031496,-0.007874015748031496,-0.007874015748031496,0.0,-0.007874015748031496,-0.023622047244094488,-0.007874015748031496,0.007874015748031496
4.610890865325928,-0.007874015748031496,-0.007874015748031496,-0.007874015748031496,-0.007874015748031496,-0.007874015748031496,-0.007874015748031496,-0.007874015748031496,0.0
4.611059308052063,0.007874015748031496,-0.015748031496062992,-0.023622047244094488,-0.015748031496062992,0.0,-0.007874015748031496,0.007874015748031496,-0.007874015748031496
4.611227750778198,0.0,-0.007874015748031496,0.0,-0.007874015748031496,-0.007874015748031496,-0.007874015748031496,-0.007874015748031496,-0.007874015748031496
4.611683368682861,0.0,-0.007874015748031496,-0.007874015748031496,-0.007874015748031496,0.007874015748031496,0.0,0.0,-0.007874015748031496
4.612138986587524,0.0,-0.015748031496062992,0.0,0.0,-0.007874015748031496,0.007874015748031496,-0.007874015748031496,-0.007874015748031496
4.612290382385254,-0.007874015748031496,-0.007874015748031496,0.0,0.0,-0.007874015748031496,-0.007874015748031496,-0.015748031496062992,-0.007874015748031496
4.612441778182983,-0.007874015748031496,-0.007874015748031496,0.007874015748031496,-0.015748031496062992,-0.007874015748031496,-0.007874015748031496,-0.015748031496062992,0.0
4.6128493547439575,-0.015748031496062992,0.0,-0.007874015748031496,-0.007874015748031496,-0.007874015748031496,-0.007874015748031496,0.0,-0.015748031496062992
4.613256931304932,-0.015748031496062992,-0.007874015748031496,0.0,-0.007874015748031496,-0.007874015748031496,-0.007874015748031496,0.0,-0.007874015748031496
4.6134114265441895,0.0,-0.015748031496062992,-0.015748031496062992,-0.007874015748031496,-0.015748031496062992,-0.007874015748031496,-0.015748031496062992,-0.015748031496062992
4.613565921783447,0.0,0.0,-0.015748031496062992,-0.007874015748031496,0.0,-0.015748031496062992,-0.007874015748031496,0.0
4.613941788673401,0.0,-0.015748031496062992,-0.015748031496062992,0.0,-0.007874015748031496,0.007874015748031496,-0.007874015748031496,0.015748031496062992
4.6143176555633545,0.007874015748031496,0.0,-0.007874015748031496,0.0,0.0,0.0,-0.007874015748031496,-0.023622047244094488
4.614476799964905,0.0,0.0,0.0,-0.007874015748031496,0.0,-0.007874015748031496,0.0,0.0
4.614635944366455,-0.007874015748031496,-0.007874015748031496,0.007874015748031496,-0.007874015748031496,0.0,-0.023622047244094488,0.007874015748031496,-0.007874015748031496
4.6150113344192505,0.0,-0.015748031496062992,-0.007874015748031496,-0.007874015748031496,-0.015748031496062992,-0.007874015748031496,-0.007874015748031496,-0.007874015748031496
4.615386724472046,-0.007874015748031496,-0.015748031496062992,0.0,0.0,0.007874015748031496,-0.007874015748031496,0.0,-0.007874015748031496
4.615556716918945,-0.015748031496062992,-0.007874015748031496,-0.015748031496062992,-0.015748031496062992,-0.007874015748031496,-0.007874015748031496,0.007874015748031496,-0.007874015748031496
4.615726709365845,0.0,0.0,-0.015748031496062992,0.0,-0.007874015748031496,0.0,-0.015748031496062992,-0.007874015748031496
4.616063714027405,0.0,0.0,-0.015748031496062992,0.0,0.007874015748031496,0.0,-0.007874015748031496,-0.015748031496062992
4.616400718688965,-0.007874015748031496,-0.007874015748031496,-0.007874015748031496,-0.023622047244094488,-0.007874015748031496,-0.007874015748031496,-0.007874015748031496,0.0
4.6165982484817505,0.0,-0.015748031496062992,-0.007874015748031496,0.0,0.0,-0.007874015748031496,-0.023622047244094488,0.007874015748031496
4.616795778274536,0.007874015748031496,0.007874015748031496,-0.007874015748031496,0.0,-0.015748031496062992,-0.015748031496062992,0.0,0.007874015748031496
4.6171897649765015,0.0,0.0,-0.007874015748031496,-0.015748031496062992,-0.007874015748031496,-0.015748031496062992,-0.015748031496062992,-0.007874015748031496
4.617583751678467,0.0,0.0,0.0,-0.007874015748031496,-0.007874015748031496,-0.007874015748031496,-0.015748031496062992,-0.007874015748031496
4.617734313011169,-0.007874015748031496,0.007874015748031496,0.0,-0.015748031496062992,-0.007874015748031496,-0.023622047244094488,-0.007874015748031496,-0.007874015748031496
4.617884874343872,0.0,-0.023622047244094488,-0.023622047244094488,0.0,0.0,0.007874015748031496,-0.007874015748031496,0.0
4.6182533502578735,0.0,-0.007874015748031496,0.007874015748031496,0.0,-0.015748031496062992,-0.007874015748031496,0.0,0.0
4.618621826171875,-0.015748031496062992,0.0,-0.007874015748031496,0.0,0.0,-0.007874015748031496,0.007874015748031496,0.0
4.618778228759766,-0.007874015748031496,-0.007874015748031496,0.007874015748031496,-0.007874015748031496,-0.007874015748031496,0.0,0.0,-0.015748031496062992
4.618934631347656,0.007874015748031496,-0.007874015748031496,-0.007874015748031496,-0.015748031496062992,0.0,-0.007874015748031496,0.007874015748031496,-0.007874015748031496
4.619321703910828,0.0,0.0,0.0,0.0,0.0,-0.007874015748031496,-0.015748031496062992,-0.015748031496062992
4.619708776473999,-0.007874015748031496,-0.007874015748031496,-0.007874015748031496,0.0,-0.015748031496062992,-0.007874015748031496,-0.015748031496062992,-0.007874015748031496
4.619811296463013,0.007874015748031496,-0.015748031496062992,0.0,-0.007874015748031496,0.0,-0.007874015748031496,-0.015748031496062992,0.0
4.619913816452026,-0.015748031496062992,0.0,-0.007874015748031496,-0.007874015748031496,-0.007874015748031496,-0.015748031496062992,-0.015748031496062992,-0.015748031496062992
4.620192766189575,-0.015748031496062992,-0.007874015748031496,-0.007874015748031496,-0.023622047244094488,0.0,-0.007874015748031496,-0.007874015748031496,0.0
4.620471715927124,-0.007874015748031496,-0.007874015748031496,-0.007874015748031496,0.0,-0.007874015748031496,0.0,0.007874015748031496,0.0
4.620619297027588,-0.007874015748031496,0.0,-0.007874015748031496,0.0,0.0,-0.007874015748031496,0.0,-0.007874015748031496
4.620766878128052,-0.007874015748031496,0.0,0.007874015748031496,0.0,-0.007874015748031496,-0.007874015748031496,-0.007874015748031496,-0.023622047244094488
4.621087908744812,0.015748031496062992,-0.007874015748031496,-0.007874015748031496,-0.023622047244094488,0.0,0.0,-0.015748031496062992,0.0
4.621408939361572,0.0,-0.015748031496062992,-0.015748031496062992,-0.007874015748031496,0.0,-0.015748031496062992,-0.015748031496062992,0.0
4.621556401252747,0.0,-0.007874015748031496,-0.007874015748031496,0.0,-0.007874015748031496,0.0,-0.007874015748031496,0.007874015748031496
4.621703863143921,-0.007874015748031496,-0.023622047244094488,-0.007874015748031496,0.0,0.0,0.0,-0.015748031496062992,-0.007874015748031496
4.622037768363953,-0.007874015748031496,-0.015748031496062992,-0.015748031496062992,-0.007874015748031496,-0.015748031496062992,-0.007874015748031496,-0.015748031496062992,-0.023622047244094488
4.622371673583984,-0.015748031496062992,-0.007874015748031496,-0.007874015748031496,-0.023622047244094488,-0.007874015748031496,0.0,0.0,-0.007874015748031496
4.6225316524505615,0.015748031496062992,0.0,-0.007874015748031496,-0.007874015748031496,-0.007874015748031496,0.0,-0.015748031496062992,-0.007874015748031496
4.622691631317139,-0.007874015748031496,-0.007874015748031496,-0.015748031496062992,-0.007874015748031496,-0.015748031496062992,-0.007874015748031496,0.0,0.007874015748031496
4.623050689697266,-0.015748031496062992,-0.007874015748031496,0.007874015748031496,0.0,-0.007874015748031496,0.007874015748031496,-0.007874015748031496,-0.007874015748031496
4.623409748077393,0.0,-0.015748031496062992,-0.015748031496062992,0.0,-0.007874015748031496,-0.007874015748031496,-0.007874015748031496,-0.023622047244094488
4.623586297035217,-0.015748031496062992,0.0,0.0,-0.007874015748031496,-0.007874015748031496,-0.015748031496062992,-0.007874015748031496,-0.007874015748031496
4.623762845993042,-0.015748031496062992,-0.007874015748031496,-0.007874015748031496,-0.007874015748031496,0.0,-0.015748031496062992,-0.007874015748031496,0.0
4.6241148710250854,0.0,0.0,-0.015748031496062992,0.007874015748031496,0.0,-0.007874015748031496,0.0,-0.015748031496062992
4.624466896057129,-0.007874015748031496,0.007874015748031496,-0.007874015748031496,-0.007874015748031496,-0.007874015748031496,-0.007874015748031496,0.0,0.0
4.62462842464447,-0.015748031496062992,0.0,0.0,-0.007874015748031496,-0.023622047244094488,0.015748031496062992,0.0,-0.015748031496062992
4.6247899532318115,0.0,-0.007874015748031496,0.0,-0.007874015748031496,-0.007874015748031496,0.0,-0.007874015748031496,0.0
4.62514591217041,-0.015748031496062992,-0.007874015748031496,-0.015748031496062992,0.0,-0.015748031496062992,0.0,0.0,0.007874015748031496
4.625501871109009,0.0,0.007874015748031496,-0.023622047244094488,0.0,-0.007874015748031496,-0.007874015748031496,-0.007874015748031496,0.0
4.625699877738953,-0.007874015748031496,-0.015748031496062992,-0.015748031496062992,-0.007874015748031496,-0.015748031496062992,-0.015748031496062992,0.0,0.0
4.6258978843688965,-0.023622047244094488,0.0,-0.015748031496062992,-0.015748031496062992,-0.007874015748031496,0.0,-0.007874015748031496,-0.015748031496062992
4.6262593269348145,-0.023622047244094488,-0.007874015748031496,-0.007874015748031496,0.0,-0.007874015748031496,-0.015748031496062992,-0.007874015748031496,-0.007874015748031496
4.626620769500732,0.007874015748031496,-0.023622047244094488,0.0,0.0,0.0,-0.007874015748031496,-0.015748031496062992,0.0
4.626783728599548,0.0,-0.007874015748031496,-0.015748031496062992,-0.015748031496062992,-0.007874015748031496,-0.007874015748031496,0.007874015748031496,-0.007874015748031496
4.626946687698364,0.007874015748031496,0.0,0.007874015748031496,0.0,-0.015748031496062992,-0.015748031496062992,-0.015748031496062992,0.0
4.6272947788238525,0.0,-0.015748031496062992,0.007874015748031496,-0.007874015748031496,0.007874015748031496,-0.007874015748031496,0.007874015748031496,-0.007874015748031496
4.627642869949341,-0.007874015748031496,-0.007874015748031496,-0.007874015748031496,-0.007874015748031496,0.0,-0.007874015748031496,-0.007874015748031496,-0.007874015748031496
4.627803325653076,0.0,-0.007874015748031496,0.0,0.0,0.0,0.0,-0.007874015748031496,0.0
4.6279637813568115,-0.007874015748031496,-0.031496062992125984,-0.015748031496062992,-0.015748031496062992,0.0,0.0,-0.007874015748031496,-0.015748031496062992
4.628309726715088,-0.007874015748031496,0.0,0.0,-0.007874015748031496,-0.015748031496062992,0.0,0.007874015748031496,0.007874015748031496
4.628655672073364,0.0,-0.007874015748031496,-0.015748031496062992,-0.015748031496062992,-0.023622047244094488,0.007874015748031496,-0.023622047244094488,0.0
4.628814697265625,-0.007874015748031496,-0.007874015748031496,-0.015748031496062992,-0.007874015748031496,-0.007874015748031496,-0.007874015748031496,-0.015748031496062992,-0.007874015748031496
4.628973722457886,0.0,0.0,-0.023622047244094488,0.0,0.007874015748031496,-0.007874015748031496,-0.007874015748031496,-0.015748031496062992
4.629333734512329,0.0,0.0,0.0,-0.015748031496062992,-0.007874015748031496,-0.007874015748031496,-0.015748031496062992,-0.007874015748031496
4.6296937465667725,-0.007874015748031496,-0.007874015748031496,0.0,0.0,-0.015748031496062992,-0.015748031496062992,0.0,-0.007874015748031496
4.629854321479797,-0.015748031496062992,-0.007874015748031496,0.0,0.0,-0.007874015748031496,-0.031496062992125984,-0.015748031496062992,-0.015748031496062992
4.630014896392822,-0.007874015748031496,0.0,-0.007874015748031496,0.007874015748031496,-0.015748031496062992,0.0,-0.007874015748031496,-0.007874015748031496
4.630356431007385,-0.015748031496062992,-0.007874015748031496,-0.007874015748031496,-0.007874015748031496,-0.007874015748031496,-0.007874015748031496,-0.007874015748031496,-0.007874015748031496
4.630697965621948,0.0,0.0,-0.007874015748031496,0.007874015748031496,0.0,0.0,0.0,-0.015748031496062992
4.630894422531128,0.007874015748031496,0.0,-0.007874015748031496,0.0,0.007874015748031496,0.0,0.0,0.0
4.631090879440308,-0.007874015748031496,-0.015748031496062992,0.015748031496062992,-0.015748031496062992,-0.007874015748031496,0.0,-0.007874015748031496,-0.015748031496062992
4.6314873695373535,-0.015748031496062992,-0.007874015748031496,-0.007874015748031496,-0.007874015748031496,-0.007874015748031496,-0.007874015748031496,-0.015748031496062992,-0.023622047244094488
4.631883859634399,-0.007874015748031496,0.0,-0.007874015748031496,-0.023622047244094488,0.0,-0.015748031496062992,-0.007874015748031496,-0.007874015748031496
4.632052898406982,-0.007874015748031496,-0.007874015748031496,-0.007874015748031496,-0.007874015748031496,0.007874015748031496,-0.007874015748031496,0.0,0.0
4.632221937179565,0.0,-0.007874015748031496,-0.007874015748031496,-0.015748031496062992,-0.007874015748031496,-0.007874015748031496,-0.007874015748031496,0.0
4.632588863372803,-0.007874015748031496,-0.023622047244094488,-0.015748031496062992,0.0,-0.007874015748031496,-0.015748031496062992,-0.007874015748031496,0.0
4.63295578956604,0.0,-0.007874015748031496,0.0,0.0,-0.007874015748031496,0.0,0.0,-0.015748031496062992
4.6330872774124146,-0.007874015748031496,-0.007874015748031496,-0.015748031496062992,-0.015748031496062992,0.007874015748031496,0.0,-0.007874015748031496,-0.015748031496062992
4.633218765258789,0.0,-0.007874015748031496,-0.007874015748031496,-0.007874015748031496,0.0,-0.007874015748031496,0.015748031496062992,-0.015748031496062992
4.633579850196838,-0.007874015748031496,-0.007874015748031496,-0.015748031496062992,-0.007874015748031496,0.0,0.0,0.0,-0.015748031496062992
4.633940935134888,-0.007874015748031496,-0.007874015748031496,0.007874015748031496,-0.015748031496062992,-0.015748031496062992,-0.007874015748031496,0.007874015748031496,-0.015748031496062992
4.634110331535339,-0.015748031496062992,-0.015748031496062992,-0.007874015748031496,0.007874015748031496,-0.007874015748031496,0.0,-0.007874015748031496,0.0
4.634279727935791,0.0,-0.007874015748031496,-0.007874015748031496,0.0,-0.015748031496062992,-0.007874015748031496,0.007874015748031496,0.007874015748031496
4.634573221206665,0.0,0.0,-0.007874015748031496,-0.007874015748031496,-0.007874015748031496,-0.007874015748031496,0.007874015748031496,0.007874015748031496
4.634866714477539,-0.023622047244094488,0.0,-0.007874015748031496,-0.015748031496062992,-0.007874015748031496,-0.007874015748031496,-0.007874015748031496,0.007874015748031496
4.635032296180725,-0.007874015748031496,-0.007874015748031496,0.0,-0.015748031496062992,-0.007874015748031496,0.0,-0.015748031496062992,-0.007874015748031496
4.635197877883911,-0.007874015748031496,0.0,-0.015748031496062992,-0.007874015748031496,0.0,-0.015748031496062992,-0.007874015748031496,0.015748031496062992
4.635581374168396,0.0,0.0,0.0,0.0,0.0,-0.015748031496062992,-0.015748031496062992,-0.007874015748031496
4.635964870452881,0.0,-0.015748031496062992,0.0,-0.015748031496062992,0.0,-0.007874015748031496,-0.007874015748031496,0.015748031496062992
4.636146306991577,0.0,-0.007874015748031496,-0.007874015748031496,-0.007874015748031496,-0.007874015748031496,-0.007874015748031496,0.0,-0.007874015748031496
4.636327743530273,0.0,-0.007874015748031496,-0.015748031496062992,-0.007874015748031496,0.0,0.007874015748031496,-0.007874015748031496,-0.007874015748031496
4.636749744415283,0.0,0.0,-0.007874015748031496,-0.007874015748031496,-0.007874015748031496,0.0,0.0,-0.023622047244094488
4.637171745300293,-0.007874015748031496,-0.007874015748031496,-0.015748031496062992,-0.015748031496062992,0.007874015748031496,0.0,0.0,0.0
4.63735830783844,0.0,-0.015748031496062992,-0.015748031496062992,0.0,-0.007874015748031496,0.0,0.0,0.0
4.637544870376587,-0.007874015748031496,-0.007874015748031496,-0.007874015748031496,-0.007874015748031496,0.007874015748031496,0.0,-0.007874015748031496,0.0
4.637973308563232,-0.007874015748031496,-0.007874015748031496,-0.007874015748031496,0.0,0.0,0.0,0.007874015748031496,0.0
4.638401746749878,0.0,-0.015748031496062992,-0.007874015748031496,0.0,-0.007874015748031496,0.015748031496062992,-0.007874015748031496,-0.007874015748031496
4.638635277748108,-0.015748031496062992,0.0,-0.007874015748031496,-0.007874015748031496,0.0,-0.007874015748031496,-0.007874015748031496,-0.007874015748031496
4.638868808746338,-0.007874015748031496,-0.015748031496062992,-0.015748031496062992,-0.007874015748031496,-0.007874015748031496,0.0,-0.007874015748031496,-0.007874015748031496
4.639236330986023,-0.007874015748031496,-0.015748031496062992,-0.007874015748031496,0.0,-0.007874015748031496,0.0,-0.015748031496062992,0.007874015748031496
4.639603853225708,-0.015748031496062992,0.0,-0.015748031496062992,0.0,0.0,-0.007874015748031496,0.007874015748031496,0.0
4.6397998332977295,-0.007874015748031496,0.0,-0.015748031496062992,0.007874015748031496,-0.007874015748031496,-0.007874015748031496,0.007874015748031496,0.0
4.639995813369751,-0.007874015748031496,-0.007874015748031496,-0.007874015748031496,0.0,-0.023622047244094488,-0.023622047244094488,0.0,-0.015748031496062992
4.640432238578796,-0.015748031496062992,-0.007874015748031496,-0.007874015748031496,-0.007874015748031496,-0.007874015748031496,-0.023622047244094488,-0.007874015748031496,-0.015748031496062992
4.640868663787842,0.0,-0.007874015748031496,0.0,-0.007874015748031496,-0.023622047244094488,-0.015748031496062992,-0.023622047244094488,-0.007874015748031496
4.641054630279541,-0.007874015748031496,0.007874015748031496,0.0,-0.023622047244094488,0.007874015748031496,0.007874015748031496,-0.007874015748031496,0.0
4.64124059677124,-0.007874015748031496,-0.015748031496062992,-0.015748031496062992,-0.007874015748031496,0.0,-0.007874015748031496,-0.015748031496062992,-0.007874015748031496
4.641626715660095,-0.015748031496062992,-0.015748031496062992,-0.015748031496062992,-0.007874015748031496,0.0,-0.007874015748031496,0.0,0.0
4.64201283454895,0.0,0.0,0.0,-0.007874015748031496,-0.007874015748031496,-0.007874015748031496,-0.007874015748031496,-0.015748031496062992
4.642347812652588,-0.015748031496062992,-0.015748031496062992,0.0,0.015748031496062992,-0.007874015748031496,-0.015748031496062992,-0.007874015748031496,-0.015748031496062992
4.642682790756226,-0.007874015748031496,0.0,0.0,-0.007874015748031496,-0.007874015748031496,0.0,-0.015748031496062992,-0.007874015748031496
4.643038272857666,0.0,-0.007874015748031496,0.0,-0.015748031496062992,0.007874015748031496,0.007874015748031496,-0.015748031496062992,0.0
4.6433937549591064,-0.007874015748031496,-0.015748031496062992,-0.007874015748031496,-0.007874015748031496,-0.007874015748031496,0.0,-0.015748031496062992,-0.007874015748031496
4.643556237220764,0.015748031496062992,0.0,-0.015748031496062992,-0.015748031496062992,-0.023622047244094488,0.0,0.0,0.007874015748031496
4.643718719482422,-0.015748031496062992,-0.007874015748031496,-0.007874015748031496,-0.007874015748031496,0.0,-0.007874015748031496,0.007874015748031496,-0.015748031496062992
4.64413583278656,0.0,0.0,-0.007874015748031496,0.007874015748031496,-0.015748031496062992,-0.007874015748031496,-0.007874015748031496,-0.007874015748031496
4.644552946090698,0.0,0.0,-0.007874015748031496,-0.007874015748031496,-0.015748031496062992,-0.007874015748031496,-0.007874015748031496,-0.015748031496062992
4.644772887229919,-0.023622047244094488,-0.015748031496062992,-0.007874015748031496,-0.023622047244094488,-0.015748031496062992,-0.007874015748031496,0.0,-0.007874015748031496
4.644992828369141,-0.023622047244094488,-0.015748031496062992,-0.007874015748031496,-0.015748031496062992,-0.007874015748031496,-0.007874015748031496,0.0,0.0
4.645326256752014,-0.007874015748031496,-0.007874015748031496,0.0,0.0,-0.007874015748031496,0.0,-0.007874015748031496,0.0
4.645659685134888,0.0,-0.007874015748031496,-0.007874015748031496,-0.015748031496062992,-0.007874015748031496,0.0,-0.007874015748031496,0.0
4.645876169204712,0.007874015748031496,-0.007874015748031496,0.0,-0.007874015748031496,0.0,-0.023622047244094488,-0.023622047244094488,0.0
4.646092653274536,0.0,0.0,-0.023622047244094488,0.0,-0.007874015748031496,0.0,-0.007874015748031496,-0.007874015748031496
4.646556615829468,-0.015748031496062992,0.0,-0.007874015748031496,-0.007874015748031496,-0.007874015748031496,0.007874015748031496,-0.007874015748031496,-0.015748031496062992
4.647020578384399,-0.023622047244094488,-0.015748031496062992,-0.007874015748031496,0.0,-0.015748031496062992,-0.007874015748031496,-0.007874015748031496,0.0
4.6474456787109375,0.0,-0.007874015748031496,-0.007874015748031496,-0.007874015748031496,-0.007874015748031496,0.0,-0.015748031496062992,-0.007874015748031496
4.647870779037476,0.0,0.007874015748031496,-0.015748031496062992,-0.007874015748031496,0.0,0.0,0.0,0.0
4.648334264755249,-0.007874015748031496,0.0,-0.007874015748031496,-0.015748031496062992,-0.007874015748031496,-0.007874015748031496,-0.007874015748031496,-0.007874015748031496
4.6487977504730225,0.0,-0.007874015748031496,-0.015748031496062992,0.0,0.0,0.0,0.007874015748031496,0.0
4.64909029006958,0.0,-0.007874015748031496,-0.007874015748031496,-0.007874015748031496,0.0,-0.007874015748031496,0.0,0.0
4.649382829666138,-0.007874015748031496,-0.007874015748031496,-0.007874015748031496,0.0,0.0,-0.015748031496062992,-0.007874015748031496,-0.015748031496062992
4.649772882461548,-0.007874015748031496,-0.007874015748031496,-0.015748031496062992,-0.007874015748031496,-0.007874015748031496,-0.015748031496062992,-0.007874015748031496,-0.007874015748031496
4.650162935256958,-0.007874015748031496,0.0,-0.007874015748031496,0.0,0.0,-0.007874015748031496,0.0,-0.007874015748031496
4.650364398956299,-0.007874015748031496,-0.007874015748031496,-0.015748031496062992,-0.015748031496062992,-0.007874015748031496,-0.007874015748031496,-0.007874015748031496,-0.007874015748031496
4.65056586265564,0.0,0.0,-0.007874015748031496,0.0,-0.007874015748031496,-0.007874015748031496,-0.007874015748031496,-0.007874015748031496
4.651049733161926,0.0,-0.007874015748031496,-0.015748031496062992,-0.007874015748031496,0.0,-0.015748031496062992,-0.007874015748031496,0.0
4.651533603668213,-0.007874015748031496,-0.007874015748031496,0.0,0.0,0.0,0.0,0.0,0.0
4.65172266960144,-0.007874015748031496,-0.015748031496062992,0.0,0.0,0.0,-0.007874015748031496,0.0,-0.015748031496062992
4.651911735534668,-0.015748031496062992,-0.007874015748031496,0.007874015748031496,-0.015748031496062992,-0.007874015748031496,0.015748031496062992,-0.007874015748031496,-0.007874015748031496
4.65228271484375,0.0,-0.015748031496062992,-0.015748031496062992,-0.007874015748031496,-0.015748031496062992,0.0,0.0,-0.015748031496062992
4.652653694152832,0.0,-0.007874015748031496,-0.023622047244094488,0.0,-0.007874015748031496,-0.007874015748031496,0.0,0.0
4.652821779251099,-0.007874015748031496,0.0,-0.015748031496062992,0.0,0.0,-0.007874015748031496,-0.015748031496062992,-0.007874015748031496
4.652989864349365,-0.007874015748031496,0.0,-0.007874015748031496,0.0,-0.007874015748031496,0.0,-0.007874015748031496,0.0
4.653207302093506,0.0,0.0,0.007874015748031496,-0.015748031496062992,-0.007874015748031496,-0.007874015748031496,-0.007874015748031496,0.007874015748031496
4.6534247398376465,-0.007874015748031496,0.0,-0.015748031496062992,-0.015748031496062992,-0.007874015748031496,-0.015748031496062992,-0.015748031496062992,-0.007874015748031496
4.6535186767578125,0.0,-0.007874015748031496,-0.023622047244094488,0.0,-0.007874015748031496,0.0,-0.007874015748031496,-0.007874015748031496
4.6536126136779785,-0.007874015748031496,-0.015748031496062992,-0.015748031496062992,-0.007874015748031496,-0.015748031496062992,-0.007874015748031496,0.0,-0.007874015748031496
4.6539270877838135,-0.007874015748031496,0.0,0.0,-0.007874015748031496,-0.007874015748031496,-0.007874015748031496,-0.023622047244094488,-0.007874015748031496
4.654241561889648,-0.007874015748031496,-0.015748031496062992,-0.007874015748031496,0.0,0.0,-0.007874015748031496,-0.007874015748031496,0.0
4.654420733451843,0.0,0.0,0.007874015748031496,-0.007874015748031496,-0.007874015748031496,-0.015748031496062992,-0.007874015748031496,-0.015748031496062992
4.654599905014038,0.007874015748031496,0.0,-0.007874015748031496,-0.007874015748031496,-0.007874015748031496,-0.015748031496062992,-0.015748031496062992,0.0
4.6548542976379395,0.0,-0.007874015748031496,0.0,-0.007874015748031496,-0.007874015748031496,0.0,0.007874015748031496,-0.007874015748031496
4.655108690261841,-0.007874015748031496,0.0,-0.007874015748031496,-0.007874015748031496,-0.015748031496062992,-0.015748031496062992,0.0,-0.015748031496062992
4.655265808105469,-0.007874015748031496,-0.007874015748031496,0.0,-0.015748031496062992,-0.007874015748031496,0.0,-0.007874015748031496,-0.007874015748031496
4.655422925949097,0.007874015748031496,-0.007874015748031496,0.007874015748031496,0.0,0.0,0.0,-0.015748031496062992,0.0
4.655709862709045,-0.007874015748031496,0.0,0.007874015748031496,0.0,0.0,0.0,-0.007874015748031496,-0.007874015748031496
4.655996799468994,-0.007874015748031496,0.007874015748031496,0.0,-0.015748031496062992,0.0,0.0,-0.023622047244094488,-0.007874015748031496
4.656134843826294,0.0,0.007874015748031496,-0.007874015748031496,-0.007874015748031496,-0.007874015748031496,-0.023622047244094488,0.007874015748031496,0.0
4.656272888183594,-0.007874015748031496,0.0,-0.015748031496062992,-0.015748031496062992,-0.007874015748031496,0.0,-0.007874015748031496,0.0
4.656614303588867,0.0,0.0,-0.015748031496062992,0.007874015748031496,-0.015748031496062992,-0.015748031496062992,0.0,-0.023622047244094488
4.656955718994141,-0.015748031496062992,-0.015748031496062992,-0.007874015748031496,0.0,-0.007874015748031496,-0.007874015748031496,-0.007874015748031496,-0.015748031496062992
4.657156705856323,0.0,-0.007874015748031496,-0.007874015748031496,-0.007874015748031496,0.0,0.007874015748031496,-0.007874015748031496,0.007874015748031496
4.657357692718506,-0.015748031496062992,-0.007874015748031496,0.007874015748031496,0.0,0.0,-0.007874015748031496,-0.007874015748031496,-0.007874015748031496
4.657795667648315,0.0,-0.007874015748031496,-0.007874015748031496,-0.007874015748031496,0.0,0.0,-0.007874015748031496,-0.015748031496062992
4.658233642578125,0.0,-0.007874015748031496,-0.015748031496062992,0.0,0.0,0.0,0.0,-0.007874015748031496
4.658411264419556,0.0,-0.007874015748031496,0.0,-0.007874015748031496,-0.007874015748031496,-0.015748031496062992,0.0,-0.023622047244094488
4.658588886260986,0.0,-0.015748031496062992,-0.015748031496062992,-0.007874015748031496,0.0,-0.007874015748031496,-0.007874015748031496,-0.015748031496062992
4.658927321434021,-0.015748031496062992,-0.007874015748031496,0.0,-0.007874015748031496,0.007874015748031496,0.007874015748031496,-0.023622047244094488,0.0
4.659265756607056,-0.015748031496062992,0.0,0.0,0.0,0.0,-0.007874015748031496,-0.007874015748031496,-0.007874015748031496
4.659440875053406,-0.015748031496062992,-0.007874015748031496,-0.007874015748031496,0.007874015748031496,-0.015748031496062992,0.0,-0.007874015748031496,-0.015748031496062992
4.659615993499756,-0.007874015748031496,0.0,0.0,-0.007874015748031496,-0.023622047244094488,-0.023622047244094488,0.015748031496062992,-0.015748031496062992
4.65990948677063,-0.015748031496062992,-0.007874015748031496,-0.007874015748031496,-0.007874015748031496,-0.007874015748031496,-0.015748031496062992,0.0,0.0
4.660202980041504,0.0,-0.023622047244094488,-0.007874015748031496,-0.007874015748031496,0.0,-0.015748031496062992,0.007874015748031496,-0.007874015748031496
4.660310864448547,-0.007874015748031496,-0.007874015748031496,0.0,0.0,0.0,-0.007874015748031496,-0.015748031496062992,0.0
4.660418748855591,-0.015748031496062992,-0.007874015748031496,-0.015748031496062992,0.0,-0.023622047244094488,0.007874015748031496,-0.007874015748031496,0.0
4.660795331001282,0.0,-0.007874015748031496,-0.007874015748031496,-0.007874015748031496,-0.007874015748031496,0.0,-0.007874015748031496,0.007874015748031496
4.661171913146973,-0.015748031496062992,-0.007874015748031496,0.007874015748031496,-0.015748031496062992,-0.015748031496062992,-0.007874015748031496,0.0,-0.015748031496062992
4.661340832710266,0.0,0.007874015748031496,-0.007874015748031496,0.0,-0.007874015748031496,0.007874015748031496,0.007874015748031496,-0.007874015748031496
4.66150975227356,-0.007874015748031496,-0.015748031496062992,-0.015748031496062992,-0.007874015748031496,-0.007874015748031496,-0.007874015748031496,-0.007874015748031496,-0.015748031496062992
4.661861300468445,-0.015748031496062992,-0.015748031496062992,0.0,-0.015748031496062992,0.0,0.0,-0.007874015748031496,-0.007874015748031496
4.66221284866333,-0.015748031496062992,0.0,-0.015748031496062992,-0.007874015748031496,0.007874015748031496,0.0,-0.007874015748031496,0.0
4.662372827529907,-0.007874015748031496,-0.007874015748031496,0.0,-0.007874015748031496,0.0,-0.007874015748031496,-0.007874015748031496,0.0
4.662532806396484,0.0,-0.007874015748031496,-0.015748031496062992,-0.015748031496062992,0.0,-0.007874015748031496,-0.007874015748031496,-0.007874015748031496
4.662904381752014,0.0,-0.015748031496062992,-0.007874015748031496,-0.007874015748031496,-0.007874015748031496,-0.007874015748031496,-0.007874015748031496,-0.007874015748031496
4.663275957107544,0.007874015748031496,0.0,-0.007874015748031496,0.0,-0.007874015748031496,-0.007874015748031496,-0.015748031496062992,0.0
4.663433909416199,-0.015748031496062992,-0.015748031496062992,0.0,-0.015748031496062992,-0.007874015748031496,-0.007874015748031496,0.0,-0.007874015748031496
4.6635918617248535,-0.007874015748031496,0.0,-0.015748031496062992,-0.015748031496062992,-0.007874015748031496,0.0,-0.015748031496062992,0.007874015748031496
4.6639487743377686,0.0,-0.007874015748031496,0.0,-0.015748031496062992,-0.007874015748031496,-0.007874015748031496,-0.007874015748031496,-0.007874015748031496
4.664305686950684,-0.007874015748031496,-0.015748031496062992,-0.007874015748031496,-0.007874015748031496,-0.015748031496062992,-0.015748031496062992,-0.007874015748031496,-0.007874015748031496
4.664472222328186,0.0,-0.015748031496062992,-0.007874015748031496,-0.015748031496062992,0.0,0.0,-0.007874015748031496,0.0
4.6646387577056885,0.0,-0.015748031496062992,0.0,0.0,0.0,-0.007874015748031496,-0.007874015748031496,0.0
4.6649922132492065,-0.007874015748031496,0.0,-0.015748031496062992,-0.007874015748031496,-0.007874015748031496,-0.007874015748031496,-0.007874015748031496,-0.015748031496062992
4.665345668792725,0.0,-0.015748031496062992,-0.007874015748031496,-0.007874015748031496,0.0,-0.015748031496062992,-0.007874015748031496,-0.015748031496062992
4.665507674217224,-0.007874015748031496,-0.015748031496062992,-0.015748031496062992,-0.007874015748031496,0.0,-0.023622047244094488,0.0,-0.023622047244094488
4.665669679641724,-0.015748031496062992,0.0,0.0,-0.007874015748031496,-0.007874015748031496,-0.007874015748031496,-0.007874015748031496,-0.007874015748031496
4.666034817695618,0.0,-0.007874015748031496,-0.015748031496062992,-0.007874015748031496,0.007874015748031496,0.0,-0.007874015748031496,-0.007874015748031496
4.666399955749512,-0.015748031496062992,-0.007874015748031496,0.007874015748031496,0.0,-0.015748031496062992,0.0,-0.007874015748031496,0.007874015748031496
4.666589856147766,0.007874015748031496,0.0,0.0,-0.023622047244094488,-0.015748031496062992,0.0,-0.007874015748031496,0.007874015748031496
4.6667797565460205,-0.007874015748031496,-0.007874015748031496,-0.015748031496062992,0.007874015748031496,-0.007874015748031496,0.0,0.0,-0.023622047244094488
4.667118310928345,-0.007874015748031496,-0.007874015748031496,-0.015748031496062992,-0.015748031496062992,-0.007874015748031496,0.0,-0.015748031496062992,0.0
4.667456865310669,-0.007874015748031496,0.0,-0.015748031496062992,0.0,-0.015748031496062992,0.0,-0.007874015748031496,-0.007874015748031496
4.667554259300232,-0.015748031496062992,0.0,-0.007874015748031496,-0.007874015748031496,0.0,0.0,-0.023622047244094488,-0.015748031496062992
4.667651653289795,0.0,-0.007874015748031496,-0.007874015748031496,-0.007874015748031496,-0.015748031496062992,0.0,-0.007874015748031496,0.007874015748031496
4.667883276939392,0.0,0.0,-0.007874015748031496,0.007874015748031496,-0.007874015748031496,0.007874015748031496,0.0,-0.007874015748031496
4.668114900588989,0.0,-0.007874015748031496,0.0,-0.007874015748031496,-0.007874015748031496,0.007874015748031496,0.0,0.007874015748031496
4.668211340904236,0.0,-0.015748031496062992,-0.007874015748031496,0.0,-0.007874015748031496,0.0,-0.007874015748031496,0.007874015748031496
4.668307781219482,-0.007874015748031496,-0.015748031496062992,-0.007874015748031496,-0.007874015748031496,-0.015748031496062992,-0.031496062992125984,-0.007874015748031496,0.0
4.6686543226242065,-0.015748031496062992,0.0,0.0,0.007874015748031496,-0.015748031496062992,-0.023622047244094488,-0.007874015748031496,0.0
4.669000864028931,-0.007874015748031496,0.007874015748031496,0.0,-0.007874015748031496,0.0,-0.007874015748031496,-0.007874015748031496,0.0
4.6691577434539795,-0.007874015748031496,0.0,-0.007874015748031496,0.007874015748031496,-0.015748031496062992,0.0,0.0,-0.015748031496062992
4.669314622879028,0.0,0.0,-0.007874015748031496,-0.015748031496062992,-0.015748031496062992,-0.007874015748031496,0.0,0.007874015748031496
4.669545650482178,-0.007874015748031496,-0.015748031496062992,-0.023622047244094488,0.0,-0.007874015748031496,-0.015748031496062992,0.007874015748031496,0.0
4.669776678085327,-0.007874015748031496,0.007874015748031496,0.0,0.0,-0.007874015748031496,0.0,0.007874015748031496,-0.015748031496062992
4.669923305511475,0.0,-0.015748031496062992,-0.007874015748031496,0.0,0.0,-0.015748031496062992,-0.007874015748031496,-0.015748031496062992
4.670069932937622,0.0,0.007874015748031496,0.0,-0.015748031496062992,-0.007874015748031496,-0.007874015748031496,0.0,-0.007874015748031496
4.67039942741394,0.007874015748031496,-0.007874015748031496,-0.007874015748031496,-0.023622047244094488,-0.007874015748031496,0.0,-0.007874015748031496,-0.015748031496062992
4.670728921890259,-0.007874015748031496,-0.015748031496062992,-0.007874015748031496,-0.015748031496062992,-0.007874015748031496,0.0,-0.023622047244094488,-0.007874015748031496
4.670935392379761,-0.015748031496062992,-0.007874015748031496,-0.007874015748031496,-0.015748031496062992,0.0,-0.015748031496062992,-0.007874015748031496,0.0
4.671141862869263,0.0,0.0,0.0,0.0,0.0,0.0,0.0,-0.007874015748031496
4.671591401100159,0.007874015748031496,-0.007874015748031496,-0.015748031496062992,-0.015748031496062992,-0.015748031496062992,-0.007874015748031496,0.0,0.007874015748031496
4.672040939331055,0.0,-0.015748031496062992,-0.015748031496062992,0.0,0.0,0.0,0.0,-0.015748031496062992
4.672186851501465,-0.007874015748031496,0.0,-0.007874015748031496,-0.023622047244094488,-0.007874015748031496,-0.015748031496062992,-0.007874015748031496,0.007874015748031496
4.672332763671875,-0.007874015748031496,-0.007874015748031496,-0.007874015748031496,0.0,-0.007874015748031496,0.0,0.007874015748031496,-0.007874015748031496
4.672702789306641,-0.015748031496062992,0.0,-0.015748031496062992,-0.007874015748031496,0.007874015748031496,-0.015748031496062992,0.007874015748031496,-0.007874015748031496
4.673072814941406,0.0,-0.015748031496062992,-0.015748031496062992,-0.007874015748031496,-0.007874015748031496,0.007874015748031496,0.007874015748031496,-0.007874015748031496
4.673222780227661,0.0,-0.023622047244094488,-0.007874015748031496,0.007874015748031496,-0.015748031496062992,0.0,-0.007874015748031496,0.0
4.673372745513916,-0.015748031496062992,0.0,0.0,-0.007874015748031496,-0.007874015748031496,0.0,-0.023622047244094488,0.0
4.673651814460754,0.007874015748031496,0.0,0.0,-0.007874015748031496,0.007874015748031496,0.0,0.0,0.0
4.673930883407593,0.0,-0.007874015748031496,-0.007874015748031496,-0.007874015748031496,-0.007874015748031496,-0.007874015748031496,-0.015748031496062992,-0.007874015748031496
4.674076318740845,0.0,0.007874015748031496,0.0,-0.007874015748031496,-0.015748031496062992,-0.023622047244094488,0.007874015748031496,-0.015748031496062992
4.674221754074097,-0.007874015748031496,-0.015748031496062992,-0.007874015748031496,0.0,0.0,-0.015748031496062992,-0.015748031496062992,0.0
4.674535751342773,0.0,-0.007874015748031496,0.0,0.0,-0.015748031496062992,-0.007874015748031496,-0.007874015748031496,-0.015748031496062992
4.67484974861145,-0.015748031496062992,0.0,-0.007874015748031496,0.0,0.0,-0.015748031496062992,-0.007874015748031496,-0.007874015748031496
4.674994230270386,-0.007874015748031496,0.0,-0.015748031496062992,0.0,-0.007874015748031496,-0.007874015748031496,-0.015748031496062992,0.0
4.675138711929321,0.0,-0.007874015748031496,-0.007874015748031496,-0.015748031496062992,-0.015748031496062992,0.0,-0.007874015748031496,-0.007874015748031496
4.675457239151001,-0.007874015748031496,-0.015748031496062992,-0.007874015748031496,0.0,-0.007874015748031496,0.0,-0.007874015748031496,-0.007874015748031496
4.675775766372681,-0.007874015748031496,-0.007874015748031496,-0.015748031496062992,-0.015748031496062992,-0.015748031496062992,-0.015748031496062992,0.0,0.0
4.675923824310303,0.0,-0.015748031496062992,-0.015748031496062992,-0.007874015748031496,-0.007874015748031496,0.007874015748031496,0.007874015748031496,-0.007874015748031496
4.676071882247925,-0.007874015748031496,0.0,-0.015748031496062992,0.0,-0.007874015748031496,-0.007874015748031496,-0.007874015748031496,-0.015748031496062992
4.676430344581604,-0.015748031496062992,-0.015748031496062992,-0.007874015748031496,0.0,0.0,0.007874015748031496,-0.015748031496062992,0.0
4.676788806915283,-0.007874015748031496,0.0,-0.007874015748031496,0.0,-0.015748031496062992,0.0,-0.007874015748031496,0.0
4.676966190338135,-0.015748031496062992,-0.007874015748031496,-0.015748031496062992,0.007874015748031496,0.0,-0.007874015748031496,-0.007874015748031496,-0.015748031496062992
4.677143573760986,0.0,-0.007874015748031496,-0.015748031496062992,-0.007874015748031496,-0.007874015748031496,0.007874015748031496,-0.015748031496062992,-0.007874015748031496
4.677518725395203,-0.007874015748031496,0.0,0.0,-0.007874015748031496,-0.007874015748031496,-0.015748031496062992,0.0,-0.007874015748031496
4.677893877029419,0.0,-0.007874015748031496,-0.007874015748031496,-0.015748031496062992,-0.015748031496062992,-0.023622047244094488,-0.015748031496062992,-0.007874015748031496
4.678045868873596,-0.007874015748031496,-0.007874015748031496,0.0,-0.007874015748031496,0.0,-0.007874015748031496,-0.015748031496062992,0.0
4.678197860717773,0.007874015748031496,-0.007874015748031496,-0.015748031496062992,-0.015748031496062992,-0.007874015748031496,-0.007874015748031496,0.0,0.0
4.678422808647156,-0.007874015748031496,-0.015748031496062992,-0.015748031496062992,0.0,-0.015748031496062992,-0.007874015748031496,-0.007874015748031496,-0.015748031496062992
4.678647756576538,-0.007874015748031496,-0.015748031496062992,-0.015748031496062992,-0.007874015748031496,-0.007874015748031496,-0.007874015748031496,0.0,-0.007874015748031496
4.678805351257324,0.0,0.0,-0.007874015748031496,0.0,-0.007874015748031496,-0.007874015748031496,0.0,0.0
4.67896294593811,-0.023622047244094488,-0.007874015748031496,0.0,0.0,0.0,0.0,-0.007874015748031496,-0.015748031496062992
4.679314374923706,0.0,-0.007874015748031496,-0.007874015748031496,-0.007874015748031496,0.0,0.0,-0.007874015748031496,-0.007874015748031496
4.679665803909302,0.0,-0.007874015748031496,0.0,0.0,0.0,-0.015748031496062992,-0.015748031496062992,-0.007874015748031496
4.679798245429993,0.0,-0.015748031496062992,-0.007874015748031496,0.0,0.007874015748031496,-0.023622047244094488,0.007874015748031496,-0.007874015748031496
4.679930686950684,-0.007874015748031496,0.0,0.0,-0.015748031496062992,-0.007874015748031496,-0.023622047244094488,0.0,-0.007874015748031496
4.680129766464233,-0.023622047244094488,-0.023622047244094488,0.0,-0.007874015748031496,-0.007874015748031496,-0.007874015748031496,-0.007874015748031496,-0.007874015748031496
4.680328845977783,0.0,-0.007874015748031496,-0.007874015748031496,-0.007874015748031496,-0.007874015748031496,0.0,-0.015748031496062992,-0.007874015748031496
4.680417776107788,-0.007874015748031496,-0.007874015748031496,0.0,-0.031496062992125984,-0.015748031496062992,0.007874015748031496,-0.015748031496062992,0.007874015748031496
4.680506706237793,-0.007874015748031496,-0.007874015748031496,-0.007874015748031496,0.0,-0.015748031496062992,-0.007874015748031496,0.007874015748031496,0.0
4.68078076839447,0.0,0.0,-0.015748031496062992,-0.023622047244094488,-0.007874015748031496,0.0,-0.007874015748031496,0.0
4.6810548305511475,-0.007874015748031496,-0.015748031496062992,-0.015748031496062992,0.0,0.0,0.0,-0.007874015748031496,0.007874015748031496
4.681148290634155,-0.015748031496062992,-0.007874015748031496,-0.007874015748031496,0.007874015748031496,-0.015748031496062992,0.0,0.0,0.0
4.681241750717163,0.0,-0.007874015748031496,0.0,-0.007874015748031496,0.0,-0.015748031496062992,-0.015748031496062992,-0.015748031496062992
4.681457757949829,-0.007874015748031496,0.007874015748031496,0.0,0.0,-0.007874015748031496,-0.015748031496062992,-0.007874015748031496,-0.015748031496062992
4.681673765182495,0.0,-0.015748031496062992,0.007874015748031496,-0.007874015748031496,-0.007874015748031496,-0.007874015748031496,-0.007874015748031496,0.007874015748031496
4.681870818138123,-0.007874015748031496,-0.015748031496062992,0.0,-0.007874015748031496,0.0,-0.007874015748031496,-0.007874015748031496,-0.007874015748031496
4.68206787109375,-0.007874015748031496,0.0,-0.007874015748031496,0.0,-0.007874015748031496,0.0,0.0,0.0
4.682440876960754,-0.007874015748031496,-0.007874015748031496,-0.015748031496062992,0.0,0.007874015748031496,-0.015748031496062992,-0.015748031496062992,-0.007874015748031496
4.682813882827759,0.0,0.015748031496062992,0.0,-0.015748031496062992,-0.007874015748031496,0.0,0.007874015748031496,0.0
4.683062314987183,-0.007874015748031496,-0.015748031496062992,-0.015748031496062992,-0.015748031496062992,-0.007874015748031496,-0.015748031496062992,-0.015748031496062992,-0.007874015748031496
4.6833107471466064,0.007874015748031496,0.0,-0.007874015748031496,-0.007874015748031496,0.0,0.007874015748031496,-0.007874015748031496,0.0
4.6836947202682495,-0.015748031496062992,0.0,-0.007874015748031496,-0.007874015748031496,-0.015748031496062992,0.007874015748031496,-0.015748031496062992,-0.007874015748031496
4.684078693389893,-0.007874015748031496,0.0,0.0,0.007874015748031496,0.0,-0.007874015748031496,0.0,-0.015748031496062992
4.684205651283264,-0.007874015748031496,-0.015748031496062992,-0.023622047244094488,-0.007874015748031496,-0.007874015748031496,0.0,-0.015748031496062992,-0.015748031496062992
4.684332609176636,-0.007874015748031496,-0.023622047244094488,-0.007874015748031496,-0.007874015748031496,0.007874015748031496,-0.015748031496062992,-0.007874015748031496,0.0
4.684610605239868,0.0,-0.023622047244094488,-0.015748031496062992,0.0,-0.015748031496062992,-0.007874015748031496,-0.007874015748031496,0.0
4.684888601303101,-0.007874015748031496,-0.007874015748031496,-0.015748031496062992,-0.007874015748031496,-0.023622047244094488,-0.007874015748031496,-0.015748031496062992,-0.007874015748031496
4.685006618499756,-0.015748031496062992,0.0,0.0,-0.015748031496062992,0.0,-0.007874015748031496,-0.007874015748031496,0.0
4.685124635696411,-0.015748031496062992,-0.015748031496062992,-0.015748031496062992,-0.007874015748031496,-0.015748031496062992,0.0,-0.015748031496062992,-0.007874015748031496
4.685439229011536,0.0,0.0,0.0,-0.015748031496062992,0.0,-0.015748031496062992,0.0,0.007874015748031496
4.68575382232666,-0.007874015748031496,-0.015748031496062992,-0.015748031496062992,0.0,-0.007874015748031496,-0.007874015748031496,-0.023622047244094488,-0.007874015748031496
4.685887336730957,0.0,-0.015748031496062992,-0.015748031496062992,0.007874015748031496,-0.007874015748031496,-0.007874015748031496,-0.015748031496062992,-0.015748031496062992
4.686020851135254,-0.015748031496062992,-0.007874015748031496,0.0,-0.007874015748031496,0.0,-0.007874015748031496,-0.015748031496062992,0.0
4.686419725418091,0.0,-0.015748031496062992,0.0,0.0,-0.007874015748031496,0.0,-0.007874015748031496,-0.015748031496062992
4.686818599700928,-0.007874015748031496,0.0,-0.007874015748031496,0.0,-0.007874015748031496,0.015748031496062992,0.0,0.0
4.686939716339111,-0.007874015748031496,0.0,-0.007874015748031496,0.0,-0.007874015748031496,0.0,0.015748031496062992,-0.007874015748031496
4.687060832977295,0.0,0.0,0.0,0.0,0.0,0.0,0.007874015748031496,-0.007874015748031496
4.687305331230164,-0.007874015748031496,0.0,-0.007874015748031496,-0.007874015748031496,-0.007874015748031496,-0.015748031496062992,0.0,-0.015748031496062992
4.687549829483032,-0.007874015748031496,-0.015748031496062992,-0.007874015748031496,-0.007874015748031496,0.0,-0.007874015748031496,0.007874015748031496,-0.015748031496062992
4.6876407861709595,-0.015748031496062992,-0.015748031496062992,-0.007874015748031496,-0.007874015748031496,-0.007874015748031496,0.0,-0.015748031496062992,-0.015748031496062992
4.687731742858887,0.007874015748031496,-0.015748031496062992,0.007874015748031496,-0.007874015748031496,-0.007874015748031496,-0.007874015748031496,0.0,-0.023622047244094488
4.6879723072052,-0.015748031496062992,-0.015748031496062992,0.0,-0.007874015748031496,-0.007874015748031496,0.0,-0.007874015748031496,0.0
4.688212871551514,-0.015748031496062992,-0.007874015748031496,-0.007874015748031496,0.0,-0.007874015748031496,-0.015748031496062992,-0.007874015748031496,-0.015748031496062992
4.6883028745651245,0.0,0.0,-0.007874015748031496,-0.007874015748031496,0.0,0.007874015748031496,-0.015748031496062992,0.0
4.688392877578735,0.0,-0.015748031496062992,-0.015748031496062992,-0.007874015748031496,0.0,-0.015748031496062992,-0.015748031496062992,-0.015748031496062992
4.688685894012451,-0.007874015748031496,0.0,0.0,0.0,-0.007874015748031496,-0.007874015748031496,-0.007874015748031496,-0.015748031496062992
4.688978910446167,0.0,-0.023622047244094488,-0.023622047244094488,-0.007874015748031496,-0.007874015748031496,0.0,0.0,-0.007874015748031496
4.689084887504578,0.0,-0.007874015748031496,0.0,-0.007874015748031496,-0.007874015748031496,-0.007874015748031496,0.007874015748031496,0.0
4.689190864562988,-0.007874015748031496,-0.007874015748031496,0.0,-0.007874015748031496,0.0,-0.007874015748031496,-0.007874015748031496,-0.007874015748031496
4.689449787139893,0.0,0.0,-0.007874015748031496,0.0,0.0,-0.007874015748031496,-0.015748031496062992,0.0
4.689708709716797,-0.007874015748031496,0.0,0.0,0.0,0.0,-0.015748031496062992,0.0,0.007874015748031496
4.689801812171936,0.0,0.007874015748031496,0.007874015748031496,0.0,-0.007874015748031496,-0.007874015748031496,0.0,-0.007874015748031496
4.689894914627075,0.0,-0.007874015748031496,-0.007874015748031496,-0.007874015748031496,-0.015748031496062992,-0.007874015748031496,0.015748031496062992,-0.015748031496062992
4.690157413482666,0.0,-0.023622047244094488,-0.007874015748031496,0.0,-0.007874015748031496,-0.015748031496062992,-0.023622047244094488,0.0
4.690419912338257,-0.007874015748031496,-0.015748031496062992,-0.007874015748031496,-0.031496062992125984,-0.015748031496062992,-0.007874015748031496,0.0,-0.007874015748031496
4.690532922744751,0.0,-0.023622047244094488,-0.007874015748031496,0.0,-0.007874015748031496,-0.007874015748031496,-0.007874015748031496,-0.007874015748031496
4.690645933151245,0.0,0.0,-0.015748031496062992,0.0,-0.007874015748031496,0.0,-0.023622047244094488,-0.015748031496062992
4.690918326377869,0.0,-0.007874015748031496,0.0,-0.007874015748031496,0.0,0.0,-0.007874015748031496,0.0
4.691190719604492,-0.007874015748031496,-0.007874015748031496,0.0,0.0,0.0,-0.007874015748031496,-0.015748031496062992,0.0
4.691305756568909,0.0,0.0,-0.007874015748031496,-0.023622047244094488,-0.015748031496062992,-0.015748031496062992,-0.007874015748031496,-0.007874015748031496
4.691420793533325,-0.007874015748031496,-0.015748031496062992,-0.007874015748031496,-0.007874015748031496,-0.015748031496062992,0.0,-0.007874015748031496,-0.007874015748031496
4.6916502714157104,-0.007874015748031496,-0.007874015748031496,-0.015748031496062992,-0.015748031496062992,-0.007874015748031496,-0.015748031496062992,-0.007874015748031496,-0.007874015748031496
4.691879749298096,0.0,0.0,-0.015748031496062992,-0.007874015748031496,-0.007874015748031496,-0.007874015748031496,-0.015748031496062992,-0.015748031496062992
4.691977262496948,-0.007874015748031496,0.0,0.007874015748031496,0.0,0.0,-0.007874015748031496,-0.007874015748031496,0.0
4.692074775695801,-0.007874015748031496,0.0,-0.007874015748031496,-0.023622047244094488,-0.015748031496062992,-0.007874015748031496,-0.023622047244094488,0.0
4.692283749580383,0.0,-0.015748031496062992,-0.007874015748031496,-0.007874015748031496,-0.007874015748031496,0.015748031496062992,0.0,-0.007874015748031496
4.692492723464966,0.0,0.0,0.0,0.0,-0.007874015748031496,0.0,-0.007874015748031496,-0.015748031496062992
4.692618250846863,-0.007874015748031496,-0.015748031496062992,0.0,0.007874015748031496,-0.007874015748031496,0.0,0.0,-0.007874015748031496
4.69274377822876,0.0,0.0,-0.007874015748031496,0.0,-0.007874015748031496,0.0,-0.007874015748031496,-0.007874015748031496
4.69295334815979,-0.007874015748031496,0.0,0.0,-0.007874015748031496,-0.007874015748031496,0.0,0.0,-0.015748031496062992
4.69316291809082,-0.007874015748031496,-0.007874015748031496,0.0,-0.007874015748031496,0.0,-0.031496062992125984,0.0,-0.015748031496062992
4.693257927894592,0.0,0.0,-0.015748031496062992,-0.015748031496062992,-0.007874015748031496,-0.007874015748031496,-0.023622047244094488,0.0
4.693352937698364,-0.007874015748031496,-0.015748031496062992,-0.007874015748031496,-0.007874015748031496,-0.007874015748031496,0.007874015748031496,0.0,-0.007874015748031496
4.693572402000427,0.0,0.0,-0.007874015748031496,-0.007874015748031496,0.0,0.0,0.0,0.0
4.69379186630249,-0.007874015748031496,-0.007874015748031496,0.0,-0.007874015748031496,0.0,0.0,-0.007874015748031496,-0.007874015748031496
4.693901777267456,-0.015748031496062992,0.0,-0.007874015748031496,-0.007874015748031496,0.0,-0.023622047244094488,-0.015748031496062992,-0.015748031496062992
4.694011688232422,0.0,-0.007874015748031496,0.015748031496062992,0.007874015748031496,0.0,-0.015748031496062992,-0.007874015748031496,0.0
4.694385290145874,0.0,-0.007874015748031496,0.007874015748031496,0.0,-0.007874015748031496,-0.015748031496062992,-0.015748031496062992,-0.007874015748031496
4.694758892059326,-0.007874015748031496,-0.007874015748031496,-0.007874015748031496,0.0,-0.015748031496062992,-0.031496062992125984,0.0,-0.015748031496062992
4.694912314414978,0.0,-0.023622047244094488,0.0,-0.015748031496062992,0.0,0.007874015748031496,0.0,-0.007874015748031496
4.69506573677063,-0.015748031496062992,-0.007874015748031496,-0.023622047244094488,-0.023622047244094488,0.0,-0.023622047244094488,-0.007874015748031496,0.0
4.695302248001099,-0.007874015748031496,-0.015748031496062992,-0.007874015748031496,-0.015748031496062992,0.0,-0.007874015748031496,0.0,-0.007874015748031496
4.695538759231567,-0.015748031496062992,-0.015748031496062992,0.0,0.0,-0.015748031496062992,0.007874015748031496,-0.007874015748031496,0.0
4.695631384849548,0.0,0.007874015748031496,0.0,-0.023622047244094488,-0.007874015748031496,-0.007874015748031496,0.0,-0.007874015748031496
4.695724010467529,-0.007874015748031496,0.0,-0.015748031496062992,0.007874015748031496,-0.007874015748031496,-0.007874015748031496,-0.007874015748031496,-0.007874015748031496
4.696015477180481,-0.015748031496062992,-0.007874015748031496,-0.007874015748031496,0.0,0.0,0.007874015748031496,-0.007874015748031496,-0.007874015748031496
4.696306943893433,0.007874015748031496,-0.007874015748031496,0.007874015748031496,-0.007874015748031496,0.0,-0.007874015748031496,-0.015748031496062992,0.0
4.696489930152893,-0.015748031496062992,-0.007874015748031496,0.0,0.0,0.0,0.007874015748031496,-0.015748031496062992,0.007874015748031496
4.6966729164123535,0.015748031496062992,-0.007874015748031496,0.0,-0.023622047244094488,-0.007874015748031496,0.0,-0.007874015748031496,-0.007874015748031496
4.696999788284302,-0.015748031496062992,0.0,-0.007874015748031496,0.0,-0.007874015748031496,-0.015748031496062992,0.0,0.0
4.69732666015625,0.0,0.0,-0.015748031496062992,-0.007874015748031496,0.0,-0.007874015748031496,0.0,-0.015748031496062992
4.697471261024475,-0.007874015748031496,-0.015748031496062992,-0.007874015748031496,0.0,0.0,-0.007874015748031496,-0.007874015748031496,-0.007874015748031496
4.6976158618927,-0.015748031496062992,-0.007874015748031496,0.007874015748031496,-0.007874015748031496,-0.015748031496062992,-0.015748031496062992,0.0,-0.007874015748031496
4.697931289672852,0.0,0.007874015748031496,-0.007874015748031496,0.0,-0.015748031496062992,-0.015748031496062992,-0.007874015748031496,0.007874015748031496
4.698246717453003,-0.007874015748031496,-0.007874015748031496,-0.007874015748031496,-0.007874015748031496,0.0,0.015748031496062992,0.0,0.0
4.698388695716858,-0.007874015748031496,0.0,-0.015748031496062992,0.0,0.0,-0.007874015748031496,-0.007874015748031496,0.0
4.698530673980713,-0.015748031496062992,-0.007874015748031496,0.0,0.0,0.0,-0.007874015748031496,0.0,-0.015748031496062992
4.698800206184387,-0.007874015748031496,0.0,-0.007874015748031496,-0.015748031496062992,0.0,0.0,-0.015748031496062992,-0.007874015748031496
4.6990697383880615,-0.015748031496062992,0.007874015748031496,-0.015748031496062992,-0.007874015748031496,-0.007874015748031496,0.0,0.0,0.0
4.69917631149292,-0.007874015748031496,0.0,-0.007874015748031496,-0.007874015748031496,-0.007874015748031496,-0.015748031496062992,-0.007874015748031496,-0.023622047244094488
4.699282884597778,-0.015748031496062992,-0.007874015748031496,-0.007874015748031496,-0.007874015748031496,-0.007874015748031496,0.0,-0.015748031496062992,-0.007874015748031496
4.699620723724365,-0.007874015748031496,-0.015748031496062992,-0.007874015748031496,0.0,-0.015748031496062992,-0.007874015748031496,-0.007874015748031496,-0.007874015748031496
4.699958562850952,-0.007874015748031496,-0.015748031496062992,0.0,-0.007874015748031496,-0.015748031496062992,-0.015748031496062992,-0.007874015748031496,-0.007874015748031496
4.700102686882019,-0.015748031496062992,-0.007874015748031496,-0.007874015748031496,0.015748031496062992,-0.007874015748031496,-0.015748031496062992,0.0,0.0
4.700246810913086,-0.015748031496062992,-0.007874015748031496,-0.007874015748031496,0.0,-0.007874015748031496,-0.007874015748031496,0.0,-0.007874015748031496
4.700576305389404,-0.015748031496062992,-0.007874015748031496,-0.007874015748031496,-0.007874015748031496,-0.007874015748031496,0.007874015748031496,0.0,-0.007874015748031496
4.700905799865723,0.0,-0.007874015748031496,-0.007874015748031496,0.0,0.0,-0.023622047244094488,0.0,0.0
4.701048851013184,0.0,-0.007874015748031496,-0.015748031496062992,-0.007874015748031496,-0.015748031496062992,-0.015748031496062992,-0.007874015748031496,-0.007874015748031496
4.7011919021606445,-0.007874015748031496,-0.007874015748031496,-0.015748031496062992,0.0,-0.007874015748031496,-0.007874015748031496,-0.007874015748031496,-0.023622047244094488
4.701503753662109,0.0,-0.007874015748031496,0.007874015748031496,-0.007874015748031496,0.0,0.0,0.007874015748031496,-0.007874015748031496
4.701815605163574,-0.007874015748031496,-0.007874015748031496,-0.015748031496062992,0.007874015748031496,-0.007874015748031496,0.0,0.0,-0.007874015748031496
4.701969742774963,0.0,0.0,0.0,0.0,-0.007874015748031496,0.0,-0.007874015748031496,0.007874015748031496
4.7021238803863525,0.007874015748031496,-0.007874015748031496,-0.015748031496062992,0.0,0.0,0.0,-0.015748031496062992,-0.007874015748031496
4.702329874038696,0.0,-0.015748031496062992,0.0,-0.007874015748031496,-0.007874015748031496,0.0,-0.015748031496062992,-0.007874015748031496
4.70253586769104,-0.007874015748031496,-0.007874015748031496,-0.007874015748031496,-0.015748031496062992,-0.023622047244094488,-0.007874015748031496,0.0,-0.007874015748031496
4.702627420425415,0.015748031496062992,-0.007874015748031496,0.007874015748031496,-0.015748031496062992,-0.015748031496062992,0.007874015748031496,0.0,-0.007874015748031496
4.70271897315979,-0.007874015748031496,0.0,-0.007874015748031496,0.0,-0.023622047244094488,-0.007874015748031496,0.0,0.0
4.703086972236633,-0.007874015748031496,-0.007874015748031496,0.0,-0.015748031496062992,-0.007874015748031496,-0.015748031496062992,-0.015748031496062992,-0.007874015748031496
4.703454971313477,-0.007874015748031496,-0.015748031496062992,-0.007874015748031496,-0.015748031496062992,0.0,0.0,-0.007874015748031496,0.0
4.703591823577881,0.0,-0.007874015748031496,-0.007874015748031496,-0.007874015748031496,0.0,-0.007874015748031496,0.0,-0.007874015748031496
4.703728675842285,0.0,-0.007874015748031496,0.0,0.0,-0.007874015748031496,-0.007874015748031496,-0.007874015748031496,0.0
4.703962683677673,-0.015748031496062992,-0.007874015748031496,-0.023622047244094488,-0.015748031496062992,0.0,-0.007874015748031496,0.0,-0.007874015748031496
4.7041966915130615,0.0,0.0,0.0,0.0,-0.007874015748031496,-0.007874015748031496,-0.007874015748031496,-0.015748031496062992
4.704363703727722,0.0,-0.007874015748031496,-0.015748031496062992,-0.007874015748031496,-0.023622047244094488,-0.007874015748031496,-0.007874015748031496,-0.007874015748031496
4.704530715942383,-0.015748031496062992,-0.023622047244094488,-0.007874015748031496,-0.015748031496062992,-0.007874015748031496,0.0,-0.007874015748031496,-0.007874015748031496
4.704905271530151,0.0,-0.007874015748031496,-0.015748031496062992,0.007874015748031496,0.0,-0.007874015748031496,-0.015748031496062992,0.0
4.70527982711792,0.007874015748031496,-0.007874015748031496,0.007874015748031496,0.007874015748031496,-0.015748031496062992,-0.007874015748031496,-0.015748031496062992,0.0
4.705449342727661,-0.007874015748031496,-0.015748031496062992,0.007874015748031496,-0.023622047244094488,0.007874015748031496,0.0,0.0,0.0
4.705618858337402,-0.007874015748031496,-0.007874015748031496,0.0,0.0,0.0,0.007874015748031496,-0.007874015748031496,0.0
4.705978751182556,-0.007874015748031496,-0.007874015748031496,0.0,-0.015748031496062992,0.0,0.0,-0.007874015748031496,0.0
4.70633864402771,-0.007874015748031496,-0.015748031496062992,-0.015748031496062992,-0.015748031496062992,-0.007874015748031496,0.007874015748031496,-0.007874015748031496,0.007874015748031496
4.706437706947327,0.0,0.0,-0.007874015748031496,-0.007874015748031496,-0.007874015748031496,0.0,0.0,-0.015748031496062992
4.706536769866943,-0.015748031496062992,-0.007874015748031496,0.0,-0.007874015748031496,0.007874015748031496,-0.015748031496062992,0.0,-0.007874015748031496
4.706780314445496,0.0,-0.007874015748031496,0.0,-0.007874015748031496,0.007874015748031496,0.0,0.0,-0.007874015748031496
4.707023859024048,-0.015748031496062992,-0.007874015748031496,0.0,0.0,-0.007874015748031496,-0.007874015748031496,-0.007874015748031496,-0.007874015748031496
4.707130312919617,-0.015748031496062992,0.0,0.007874015748031496,-0.015748031496062992,-0.015748031496062992,-0.023622047244094488,-0.015748031496062992,0.007874015748031496
4.7072367668151855,0.0,-0.007874015748031496,-0.007874015748031496,0.0,-0.007874015748031496,0.0,-0.007874015748031496,-0.023622047244094488
4.707562804222107,0.0,0.0,-0.015748031496062992,0.0,-0.015748031496062992,0.0,-0.007874015748031496,-0.007874015748031496
4.707888841629028,0.007874015748031496,0.0,-0.007874015748031496,-0.015748031496062992,0.0,0.007874015748031496,0.007874015748031496,-0.007874015748031496
4.708072304725647,-0.007874015748031496,0.0,-0.007874015748031496,0.0,-0.007874015748031496,0.0,-0.015748031496062992,-0.007874015748031496
4.708255767822266,0.0,0.0,-0.007874015748031496,-0.023622047244094488,-0.015748031496062992,-0.015748031496062992,0.007874015748031496,-0.007874015748031496
4.708583235740662,-0.007874015748031496,-0.007874015748031496,-0.007874015748031496,0.0,-0.007874015748031496,-0.023622047244094488,-0.007874015748031496,-0.007874015748031496
4.708910703659058,-0.007874015748031496,0.0,0.0,0.0,-0.007874015748031496,0.0,-0.015748031496062992,0.0
4.709081172943115,-0.007874015748031496,-0.007874015748031496,-0.015748031496062992,0.007874015748031496,0.0,0.0,0.007874015748031496,0.0
4.709251642227173,0.0,-0.007874015748031496,-0.007874015748031496,0.0,0.0,-0.015748031496062992,-0.007874015748031496,0.0
4.709468245506287,0.0,-0.007874015748031496,-0.015748031496062992,0.0,-0.031496062992125984,-0.007874015748031496,0.0,0.007874015748031496
4.7096848487854,-0.015748031496062992,-0.007874015748031496,-0.015748031496062992,-0.015748031496062992,0.0,-0.023622047244094488,0.007874015748031496,-0.007874015748031496
4.709778785705566,-0.007874015748031496,-0.023622047244094488,-0.007874015748031496,-0.007874015748031496,0.0,-0.023622047244094488,0.0,-0.007874015748031496
4.709872722625732,0.0,0.0,-0.007874015748031496,-0.007874015748031496,-0.007874015748031496,0.015748031496062992,0.015748031496062992,-0.007874015748031496
4.71019721031189,-0.015748031496062992,-0.015748031496062992,0.007874015748031496,-0.007874015748031496,-0.015748031496062992,-0.007874015748031496,0.007874015748031496,-0.015748031496062992
4.710521697998047,0.0,-0.007874015748031496,-0.015748031496062992,0.0,0.007874015748031496,0.007874015748031496,-0.03937007874015748,-0.007874015748031496
4.710669636726379,0.0,-0.015748031496062992,-0.015748031496062992,-0.023622047244094488,-0.031496062992125984,-0.015748031496062992,-0.007874015748031496,-0.007874015748031496
4.710817575454712,0.0,0.007874015748031496,-0.007874015748031496,-0.015748031496062992,0.0,-0.007874015748031496,-0.007874015748031496,-0.007874015748031496
4.711031079292297,0.0,-0.015748031496062992,0.0,-0.007874015748031496,0.0,0.0,-0.015748031496062992,-0.007874015748031496
4.711244583129883,-0.007874015748031496,-0.007874015748031496,-0.007874015748031496,0.0,0.007874015748031496,0.0,0.015748031496062992,-0.007874015748031496
4.711339712142944,-0.023622047244094488,0.0,0.0,0.0,0.007874015748031496,0.007874015748031496,-0.015748031496062992,-0.015748031496062992
4.711434841156006,-0.007874015748031496,0.0,0.0,0.007874015748031496,-0.015748031496062992,0.007874015748031496,-0.023622047244094488,-0.015748031496062992
4.7116382122039795,-0.015748031496062992,0.0,-0.015748031496062992,-0.015748031496062992,0.0,-0.007874015748031496,0.0,-0.007874015748031496
4.711841583251953,-0.015748031496062992,-0.015748031496062992,-0.007874015748031496,-0.015748031496062992,-0.015748031496062992,-0.015748031496062992,0.015748031496062992,-0.007874015748031496
4.711993217468262,0.0,-0.015748031496062992,-0.023622047244094488,0.0,-0.007874015748031496,0.015748031496062992,-0.007874015748031496,-0.007874015748031496
4.71214485168457,-0.007874015748031496,-0.023622047244094488,-0.015748031496062992,-0.007874015748031496,-0.015748031496062992,-0.08661417322834646,-0.023622047244094488,-0.015748031496062992
4.712519884109497,0.0,0.0,-0.007874015748031496,-0.007874015748031496,0.007874015748031496,0.047244094488188976,-0.007874015748031496,0.007874015748031496
4.712894916534424,0.007874015748031496,0.0,0.0,-0.007874015748031496,-0.023622047244094488,-0.03937007874015748,-0.015748031496062992,-0.007874015748031496
4.713074803352356,-0.007874015748031496,-0.023622047244094488,-0.015748031496062992,-0.015748031496062992,-0.015748031496062992,-0.29133858267716534,-0.06299212598425197,0.007874015748031496
4.713254690170288,-0.023622047244094488,-0.023622047244094488,-0.023622047244094488,-0.007874015748031496,0.007874015748031496,0.06299212598425197,0.03937007874015748,-0.007874015748031496
4.713649272918701,0.007874015748031496,0.015748031496062992,0.007874015748031496,0.007874015748031496,0.023622047244094488,0.023622047244094488,-0.07874015748031496,-0.023622047244094488
4.714043855667114,0.0,-0.023622047244094488,-0.023622047244094488,0.0,0.0,0.07874015748031496,0.023622047244094488,0.015748031496062992
4.714216828346252,-0.015748031496062992,0.007874015748031496,0.007874015748031496,-0.007874015748031496,-0.023622047244094488,-0.05511811023622047,-0.007874015748031496,-0.007874015748031496
4.714389801025391,0.0,0.0,-0.007874015748031496,-0.023622047244094488,0.015748031496062992,-0.015748031496062992,0.0,0.015748031496062992
4.71472430229187,-0.015748031496062992,-0.007874015748031496,-0.031496062992125984,-0.015748031496062992,-0.031496062992125984,-0.047244094488188976,-0.023622047244094488,-0.007874015748031496
4.71505880355835,0.0,0.007874015748031496,-0.007874015748031496,0.007874015748031496,-0.031496062992125984,-0.10236220472440945,-0.031496062992125984,-0.015748031496062992
4.715158820152283,0.007874015748031496,0.007874015748031496,0.015748031496062992,0.06299212598425197,0.11811023622047244,0.18110236220472442,0.03937007874015748,0.0
4.715258836746216,0.0,-0.007874015748031496,-0.015748031496062992,0.047244094488188976,0.33858267716535434,-0.007874015748031496,-0.031496062992125984,0.007874015748031496
4.71563982963562,-0.007874015748031496,-0.047244094488188976,-0.031496062992125984,-0.14173228346456693,-0.49606299212598426,0.11811023622047244,0.031496062992125984,-0.015748031496062992
4.716020822525024,-0.031496062992125984,-0.047244094488188976,-0.047244094488188976,-0.08661417322834646,-0.23622047244094488,-0.6771653543307087,-0.12598425196850394,-0.047244094488188976
4.716181755065918,0.0,0.0,-0.007874015748031496,-0.015748031496062992,-0.03937007874015748,0.47244094488188976,0.03937007874015748,0.007874015748031496
4.7163426876068115,-0.007874015748031496,0.007874015748031496,0.007874015748031496,0.031496062992125984,0.007874015748031496,-0.07086614173228346,-0.015748031496062992,-0.015748031496062992
4.7166987657547,0.0,0.0,0.0,0.08661417322834646,0.2125984251968504,-0.1732283464566929,0.023622047244094488,-0.015748031496062992
4.717054843902588,0.015748031496062992,-0.007874015748031496,-0.015748031496062992,-0.007874015748031496,0.15748031496062992,0.5826771653543307,0.031496062992125984,0.015748031496062992
4.717214345932007,0.0,-0.015748031496062992,-0.007874015748031496,-0.031496062992125984,-0.12598425196850394,-0.11023622047244094,-0.023622047244094488,-0.015748031496062992
4.717373847961426,0.0,0.0,-0.007874015748031496,-0.023622047244094488,-0.05511811023622047,-0.015748031496062992,0.0,-0.007874015748031496
4.717727780342102,-0.015748031496062992,0.0,-0.015748031496062992,0.023622047244094488,0.03937007874015748,0.06299212598425197,0.015748031496062992,0.015748031496062992
4.718081712722778,-0.015748031496062992,0.007874015748031496,0.007874015748031496,0.03937007874015748,0.015748031496062992,0.03937007874015748,0.007874015748031496,0.0
4.718183755874634,-0.007874015748031496,-0.007874015748031496,-0.015748031496062992,0.0,0.047244094488188976,-0.05511811023622047,-0.015748031496062992,-0.007874015748031496
4.718285799026489,0.0,-0.015748031496062992,0.0,-0.05511811023622047,-0.1889763779527559,0.14960629921259844,0.007874015748031496,0.0
4.718509793281555,0.0,-0.023622047244094488,0.0,-0.015748031496062992,0.007874015748031496,-0.11023622047244094,-0.015748031496062992,-0.007874015748031496
4.718733787536621,-0.015748031496062992,0.0,0.0,0.015748031496062992,0.047244094488188976,-0.015748031496062992,-0.007874015748031496,-0.007874015748031496
4.718832850456238,-0.007874015748031496,-0.015748031496062992,-0.007874015748031496,-0.023622047244094488,0.0,-0.047244094488188976,-0.007874015748031496,-0.015748031496062992
4.7189319133758545,-0.023622047244094488,-0.023622047244094488,0.0,-0.015748031496062992,-0.06299212598425197,-0.13385826771653545,-0.031496062992125984,0.0
4.719149351119995,0.0,-0.007874015748031496,0.0,0.015748031496062992,0.031496062992125984,-0.007874015748031496,-0.015748031496062992,0.0
4.719366788864136,-0.015748031496062992,-0.007874015748031496,-0.007874015748031496,0.0,0.0,0.03937007874015748,0.015748031496062992,0.007874015748031496
4.719471216201782,-0.007874015748031496,-0.007874015748031496,-0.015748031496062992,0.0,0.007874015748031496,0.0,0.015748031496062992,0.0
4.719575643539429,0.007874015748031496,0.007874015748031496,-0.015748031496062992,-0.007874015748031496,-0.03937007874015748,0.023622047244094488,-0.015748031496062992,-0.015748031496062992
4.719855785369873,0.0,-0.015748031496062992,-0.007874015748031496,-0.007874015748031496,0.06299212598425197,0.0,-0.015748031496062992,-0.007874015748031496
4.720135927200317,-0.007874015748031496,-0.007874015748031496,-0.015748031496062992,-0.023622047244094488,0.0,0.06299212598425197,-0.007874015748031496,-0.015748031496062992
4.72054135799408,-0.023622047244094488,-0.023622047244094488,-0.023622047244094488,-0.031496062992125984,-0.06299212598425197,-0.09448818897637795,-0.007874015748031496,-0.023622047244094488
4.720946788787842,0.0,0.0,0.007874015748031496,0.007874015748031496,0.0,-0.007874015748031496,0.0,-0.015748031496062992
4.7210932970047,0.0,0.015748031496062992,0.015748031496062992,0.007874015748031496,0.007874015748031496,0.0,0.0,0.007874015748031496
4.721239805221558,0.0,0.007874015748031496,0.015748031496062992,-0.007874015748031496,0.0,-0.05511811023622047,-0.007874015748031496,-0.007874015748031496
4.7214683294296265,-0.007874015748031496,-0.007874015748031496,-0.015748031496062992,-0.007874015748031496,-0.007874015748031496,-0.031496062992125984,-0.015748031496062992,0.0
4.721696853637695,-0.015748031496062992,-0.023622047244094488,-0.031496062992125984,-0.015748031496062992,-0.03937007874015748,-0.07874015748031496,0.015748031496062992,-0.015748031496062992
4.721797347068787,0.0,-0.007874015748031496,0.0,-0.007874015748031496,0.007874015748031496,0.14960629921259844,-0.023622047244094488,0.0
4.721897840499878,0.0,-0.015748031496062992,-0.007874015748031496,-0.007874015748031496,0.06299212598425197,0.007874015748031496,0.0,-0.015748031496062992
4.722136855125427,-0.007874015748031496,-0.007874015748031496,-0.023622047244094488,0.007874015748031496,0.007874015748031496,-0.05511811023622047,-0.031496062992125984,-0.023622047244094488
4.722375869750977,-0.007874015748031496,-0.007874015748031496,-0.015748031496062992,-0.007874015748031496,-0.023622047244094488,0.031496062992125984,0.007874015748031496,0.0
4.722475290298462,-0.007874015748031496,0.0,0.007874015748031496,-0.007874015748031496,0.031496062992125984,-0.06299212598425197,0.0,-0.007874015748031496
4.722574710845947,0.0,-0.007874015748031496,-0.007874015748031496,-0.023622047244094488,-0.11023622047244094,-0.08661417322834646,-0.007874015748031496,-0.015748031496062992
4.7228182554244995,0.007874015748031496,0.0,0.015748031496062992,0.007874015748031496,0.07086614173228346,0.5905511811023622,0.06299212598425197,0.023622047244094488
4.723061800003052,0.0,0.0,0.0,0.015748031496062992,-0.047244094488188976,-0.007874015748031496,0.03937007874015748,0.0
4.7231597900390625,0.0,-0.007874015748031496,-0.015748031496062992,-0.05511811023622047,-0.031496062992125984,0.11811023622047244,0.0,0.0
4.723257780075073,-0.007874015748031496,-0.015748031496062992,-0.015748031496062992,-0.03937007874015748,0.023622047244094488,-0.07874015748031496,0.007874015748031496,-0.007874015748031496
4.723503828048706,0.007874015748031496,-0.007874015748031496,0.007874015748031496,0.015748031496062992,0.031496062992125984,0.16535433070866143,-0.031496062992125984,-0.023622047244094488
4.723749876022339,0.007874015748031496,-0.007874015748031496,0.0,0.03937007874015748,0.023622047244094488,0.12598425196850394,-0.007874015748031496,-0.007874015748031496
4.723891735076904,0.0,0.007874015748031496,0.0,0.015748031496062992,0.03937007874015748,0.29133858267716534,0.023622047244094488,0.015748031496062992
4.72403359413147,0.0,0.007874015748031496,-0.007874015748031496,-0.015748031496062992,-0.015748031496062992,-0.023622047244094488,0.015748031496062992,-0.007874015748031496
4.724290132522583,-0.007874015748031496,0.0,-0.015748031496062992,-0.015748031496062992,-0.047244094488188976,-0.2283464566929134,-0.007874015748031496,-0.015748031496062992
4.724546670913696,-0.031496062992125984,-0.007874015748031496,0.0,-0.03937007874015748,-0.015748031496062992,-0.07874015748031496,-0.03937007874015748,0.0
4.72467827796936,0.0,-0.015748031496062992,0.0,0.015748031496062992,0.007874015748031496,-0.047244094488188976,-0.023622047244094488,-0.023622047244094488
4.724809885025024,0.0,0.007874015748031496,0.007874015748031496,0.007874015748031496,-0.031496062992125984,-0.12598425196850394,-0.07874015748031496,0.0
4.725038409233093,0.007874015748031496,0.0,-0.015748031496062992,-0.015748031496062992,0.023622047244094488,-0.03937007874015748,0.015748031496062992,0.007874015748031496
4.725266933441162,-0.007874015748031496,-0.007874015748031496,-0.015748031496062992,-0.023622047244094488,0.015748031496062992,-0.023622047244094488,-0.007874015748031496,-0.015748031496062992
4.725363373756409,-0.007874015748031496,-0.007874015748031496,-0.023622047244094488,0.015748031496062992,0.007874015748031496,-0.2992125984251969,0.06299212598425197,0.015748031496062992
4.725459814071655,-0.015748031496062992,-0.023622047244094488,-0.007874015748031496,-0.047244094488188976,-0.10236220472440945,0.047244094488188976,0.03937007874015748,0.015748031496062992
4.72570276260376,0.007874015748031496,0.015748031496062992,0.007874015748031496,0.007874015748031496,0.0,-0.5354330708661418,0.007874015748031496,-0.007874015748031496
4.725945711135864,0.0,-0.007874015748031496,-0.031496062992125984,-0.023622047244094488,-0.023622047244094488,0.13385826771653545,0.023622047244094488,0.023622047244094488
4.726080775260925,-0.031496062992125984,-0.015748031496062992,-0.015748031496062992,-0.015748031496062992,-0.023622047244094488,0.3937007874015748,-0.1889763779527559,-0.07086614173228346
4.726215839385986,-0.007874015748031496,0.007874015748031496,0.007874015748031496,0.031496062992125984,0.031496062992125984,0.0,0.007874015748031496,-0.007874015748031496
4.726431250572205,-0.03937007874015748,-0.03937007874015748,-0.023622047244094488,0.0,0.047244094488188976,0.031496062992125984,-0.08661417322834646,-0.031496062992125984
4.726646661758423,0.015748031496062992,0.015748031496062992,0.007874015748031496,-0.031496062992125984,-0.10236220472440945,0.47244094488188976,0.08661417322834646,0.031496062992125984
4.726762294769287,-0.023622047244094488,-0.031496062992125984,-0.03937007874015748,-0.031496062992125984,-0.047244094488188976,-0.3700787401574803,0.0,-0.015748031496062992
4.726877927780151,-0.007874015748031496,-0.015748031496062992,-0.007874015748031496,-0.007874015748031496,-0.03937007874015748,0.047244094488188976,0.015748031496062992,-0.007874015748031496
4.727150917053223,-0.007874015748031496,-0.007874015748031496,0.007874015748031496,0.007874015748031496,0.0,-0.047244094488188976,0.007874015748031496,0.0
4.727423906326294,-0.023622047244094488,-0.015748031496062992,0.0,-0.007874015748031496,0.007874015748031496,0.07086614173228346,-0.023622047244094488,-0.031496062992125984
4.727519869804382,0.007874015748031496,0.007874015748031496,0.015748031496062992,0.015748031496062992,0.08661417322834646,0.07086614173228346,0.0,0.023622047244094488
4.727615833282471,0.0,0.0,0.0,0.023622047244094488,0.047244094488188976,0.33858267716535434,0.05511811023622047,0.007874015748031496
4.72782576084137,0.0,-0.015748031496062992,-0.023622047244094488,-0.07086614173228346,-0.023622047244094488,0.05511811023622047,0.023622047244094488,0.007874015748031496
4.7280356884002686,-0.007874015748031496,-0.007874015748031496,0.007874015748031496,0.06299212598425197,0.2204724409448819,0.13385826771653545,-0.007874015748031496,-0.007874015748031496
4.728141665458679,-0.015748031496062992,0.007874015748031496,-0.023622047244094488,-0.047244094488188976,-0.2283464566929134,-0.10236220472440945,0.015748031496062992,-0.015748031496062992
4.72824764251709,0.0,0.015748031496062992,-0.007874015748031496,0.007874015748031496,0.023622047244094488,-0.49606299212598426,0.07874015748031496,0.0
4.7285507917404175,-0.015748031496062992,0.0,0.0,0.015748031496062992,-0.03937007874015748,-0.07086614173228346,-0.03937007874015748,-0.007874015748031496
4.728853940963745,-0.023622047244094488,-0.007874015748031496,-0.007874015748031496,-0.015748031496062992,-0.015748031496062992,-0.14960629921259844,-0.007874015748031496,0.0
4.72896134853363,-0.015748031496062992,-0.015748031496062992,0.015748031496062992,0.05511811023622047,0.25196850393700787,-0.07086614173228346,0.0,-0.007874015748031496
4.729068756103516,0.0,0.0,-0.007874015748031496,-0.015748031496062992,-0.007874015748031496,0.13385826771653545,-0.07086614173228346,-0.023622047244094488
4.729379296302795,-0.015748031496062992,-0.015748031496062992,-0.023622047244094488,-0.03937007874015748,-0.047244094488188976,0.36220472440944884,-0.07874015748031496,-0.023622047244094488
4.729689836502075,-0.015748031496062992,-0.023622047244094488,-0.007874015748031496,-0.031496062992125984,-0.08661417322834646,-0.5826771653543307,-0.05511811023622047,-0.023622047244094488
4.72979736328125,0.007874015748031496,-0.007874015748031496,0.0,0.007874015748031496,0.007874015748031496,0.3700787401574803,0.12598425196850394,0.015748031496062992
4.729904890060425,-0.007874015748031496,-0.015748031496062992,0.007874015748031496,0.015748031496062992,-0.023622047244094488,0.031496062992125984,-0.047244094488188976,-0.023622047244094488
4.730156898498535,0.007874015748031496,0.0,0.0,-0.007874015748031496,-0.015748031496062992,0.023622047244094488,0.007874015748031496,0.0
4.7304089069366455,-0.007874015748031496,-0.007874015748031496,-0.007874015748031496,-0.023622047244094488,-0.05511811023622047,-0.36220472440944884,0.015748031496062992,-0.007874015748031496
4.730531930923462,-0.015748031496062992,0.0,0.0,-0.007874015748031496,0.0,-0.13385826771653545,-0.023622047244094488,0.0
4.730654954910278,-0.007874015748031496,-0.015748031496062992,-0.015748031496062992,0.0,-0.047244094488188976,0.11023622047244094,-0.007874015748031496,0.0
4.73088538646698,0.007874015748031496,-0.015748031496062992,-0.015748031496062992,-0.023622047244094488,-0.08661417322834646,0.6299212598425197,0.03937007874015748,0.007874015748031496
4.731115818023682,0.023622047244094488,0.0,0.0,-0.023622047244094488,0.0,-0.05511811023622047,0.015748031496062992,0.015748031496062992
4.731255769729614,0.0,-0.023622047244094488,0.0,-0.047244094488188976,-0.18110236220472442,0.047244094488188976,-0.031496062992125984,-0.023622047244094488
4.731395721435547,0.007874015748031496,0.0,0.023622047244094488,0.007874015748031496,-0.06299212598425197,-0.7874015748031497,0.11023622047244094,0.023622047244094488
4.731716275215149,-0.023622047244094488,-0.007874015748031496,0.0,0.0,0.05511811023622047,-0.1968503937007874,-0.11811023622047244,-0.023622047244094488
4.732036828994751,-0.015748031496062992,-0.023622047244094488,-0.023622047244094488,-0.015748031496062992,-0.023622047244094488,-0.28346456692913385,-0.07874015748031496,-0.023622047244094488
4.732149839401245,0.007874015748031496,0.015748031496062992,0.0,0.031496062992125984,0.10236220472440945,0.23622047244094488,-0.023622047244094488,0.0
4.732262849807739,0.0,-0.007874015748031496,-0.015748031496062992,0.007874015748031496,0.007874015748031496,0.07086614173228346,-0.03937007874015748,-0.007874015748031496
4.732556343078613,-0.023622047244094488,0.0,0.0,0.0,-0.023622047244094488,-0.5905511811023622,0.05511811023622047,0.07086614173228346
4.732849836349487,0.0,-0.007874015748031496,0.007874015748031496,0.0,-0.031496062992125984,-0.2992125984251969,0.08661417322834646,-0.06299212598425197
4.732948303222656,0.0,-0.015748031496062992,0.0,-0.023622047244094488,-0.015748031496062992,-0.2047244094488189,-0.031496062992125984,-0.023622047244094488
4.733046770095825,-0.007874015748031496,-0.007874015748031496,-0.007874015748031496,-0.015748031496062992,0.03937007874015748,0.28346456692913385,-0.06299212598425197,-0.007874015748031496
4.7333152294158936,0.0,-0.015748031496062992,-0.015748031496062992,0.0,0.007874015748031496,-0.007874015748031496,0.06299212598425197,-0.023622047244094488
4.733583688735962,0.007874015748031496,-0.015748031496062992,-0.015748031496062992,-0.007874015748031496,0.015748031496062992,0.05511811023622047,0.0,0.031496062992125984
4.73367178440094,-0.007874015748031496,-0.007874015748031496,-0.007874015748031496,-0.023622047244094488,-0.08661417322834646,-0.25984251968503935,0.06299212598425197,0.015748031496062992
4.733759880065918,0.007874015748031496,-0.015748031496062992,-0.023622047244094488,-0.007874015748031496,0.007874015748031496,0.14960629921259844,-0.023622047244094488,-0.023622047244094488
4.734013319015503,0.007874015748031496,-0.007874015748031496,0.015748031496062992,-0.007874015748031496,0.007874015748031496,0.2755905511811024,-0.03937007874015748,0.0
4.734266757965088,-0.015748031496062992,-0.007874015748031496,0.0,0.023622047244094488,0.0,-0.11811023622047244,0.07086614173228346,0.015748031496062992
4.73438823223114,0.0,-0.007874015748031496,-0.007874015748031496,-0.015748031496062992,-0.11023622047244094,0.2283464566929134,-0.08661417322834646,-0.031496062992125984
4.734509706497192,0.0,0.0,-0.015748031496062992,-0.031496062992125984,0.0,0.14960629921259844,0.0,0.007874015748031496
4.73478376865387,0.0,-0.007874015748031496,-0.015748031496062992,0.007874015748031496,0.08661417322834646,-0.13385826771653545,-0.031496062992125984,0.0
4.735057830810547,-0.007874015748031496,-0.007874015748031496,-0.015748031496062992,-0.08661417322834646,-0.2204724409448819,0.4094488188976378,-0.047244094488188976,0.0
4.735148310661316,0.0,0.007874015748031496,-0.015748031496062992,-0.015748031496062992,0.047244094488188976,-0.3700787401574803,-0.015748031496062992,0.015748031496062992
4.735238790512085,-0.007874015748031496,0.015748031496062992,0.007874015748031496,0.031496062992125984,0.023622047244094488,0.5669291338582677,-0.2047244094488189,-0.023622047244094488
4.7356133460998535,-0.015748031496062992,-0.023622047244094488,0.0,-0.007874015748031496,-0.07086614173228346,-0.3543307086614173,0.0,-0.031496062992125984
4.735987901687622,-0.023622047244094488,-0.007874015748031496,-0.015748031496062992,0.031496062992125984,0.09448818897637795,-0.12598425196850394,-0.07874015748031496,-0.031496062992125984
4.736075282096863,-0.015748031496062992,0.0,0.0,-0.015748031496062992,-0.06299212598425197,-0.03937007874015748,-0.031496062992125984,0.0
4.7361626625061035,-0.015748031496062992,-0.007874015748031496,-0.023622047244094488,-0.05511811023622047,-0.07086614173228346,-0.07086614173228346,0.007874015748031496,-0.007874015748031496
4.7363622188568115,-0.023622047244094488,0.0,-0.023622047244094488,-0.007874015748031496,0.015748031496062992,-0.13385826771653545,0.05511811023622047,-0.015748031496062992
4.7365617752075195,-0.007874015748031496,-0.015748031496062992,0.0,0.015748031496062992,0.031496062992125984,0.6062992125984252,-0.15748031496062992,-0.023622047244094488
4.736722826957703,-0.047244094488188976,-0.015748031496062992,-0.023622047244094488,0.0,-0.007874015748031496,-0.14173228346456693,-0.09448818897637795,-0.05511811023622047
4.736883878707886,-0.007874015748031496,-0.015748031496062992,-0.015748031496062992,-0.007874015748031496,0.05511811023622047,0.09448818897637795,0.047244094488188976,0.0
4.737126350402832,-0.015748031496062992,-0.007874015748031496,-0.007874015748031496,-0.031496062992125984,-0.10236220472440945,0.031496062992125984,-0.06299212598425197,-0.015748031496062992
4.737368822097778,0.0,-0.007874015748031496,-0.007874015748031496,0.015748031496062992,0.11023622047244094,-0.007874015748031496,0.0,-0.007874015748031496
4.737507224082947,-0.015748031496062992,-0.023622047244094488,-0.007874015748031496,0.031496062992125984,0.07086614173228346,-0.07086614173228346,0.007874015748031496,-0.023622047244094488
4.737645626068115,0.0,0.007874015748031496,-0.007874015748031496,0.007874015748031496,-0.05511811023622047,-0.33070866141732286,0.023622047244094488,-0.007874015748031496
4.73789370059967,-0.015748031496062992,-0.007874015748031496,-0.023622047244094488,-0.047244094488188976,0.047244094488188976,0.06299212598425197,-0.05511811023622047,-0.015748031496062992
4.738141775131226,-0.015748031496062992,-0.007874015748031496,-0.023622047244094488,-0.047244094488188976,-0.05511811023622047,0.08661417322834646,-0.03937007874015748,0.007874015748031496
4.738258242607117,-0.007874015748031496,-0.023622047244094488,-0.023622047244094488,-0.007874015748031496,-0.12598425196850394,-0.1732283464566929,-0.07086614173228346,-0.023622047244094488
4.738374710083008,0.007874015748031496,-0.015748031496062992,0.0,0.007874015748031496,-0.023622047244094488,-0.33858267716535434,-0.047244094488188976,0.015748031496062992
4.738634705543518,0.007874015748031496,0.007874015748031496,-0.007874015748031496,0.007874015748031496,-0.08661417322834646,-0.2677165354330709,0.12598425196850394,-0.015748031496062992
4.738894701004028,0.0,0.0,0.007874015748031496,0.023622047244094488,0.16535433070866143,0.06299212598425197,0.06299212598425197,0.023622047244094488
4.738996744155884,-0.007874015748031496,-0.007874015748031496,-0.023622047244094488,-0.047244094488188976,0.023622047244094488,-0.06299212598425197,0.08661417322834646,0.023622047244094488
4.739098787307739,-0.015748031496062992,-0.031496062992125984,-0.015748031496062992,0.0,0.05511811023622047,0.09448818897637795,-0.007874015748031496,0.007874015748031496
4.739374279975891,0.06299212598425197,0.015748031496062992,0.015748031496062992,0.05511811023622047,0.05511811023622047,0.06299212598425197,0.05511811023622047,0.0
4.739649772644043,0.33858267716535434,0.10236220472440945,0.0,-0.03937007874015748,-0.13385826771653545,-0.6220472440944882,0.07086614173228346,0.05511811023622047
4.739739894866943,0.09448818897637795,0.015748031496062992,-0.015748031496062992,-0.015748031496062992,-0.007874015748031496,0.14960629921259844,0.0,0.047244094488188976
4.739830017089844,-0.5669291338582677,-0.2125984251968504,-0.03937007874015748,-0.007874015748031496,0.031496062992125984,-0.4251968503937008,0.0,-0.14173228346456693
4.740040421485901,0.007874015748031496,-0.031496062992125984,-0.015748031496062992,0.0,0.07874015748031496,0.33070866141732286,-0.13385826771653545,-0.015748031496062992
4.740250825881958,-0.1732283464566929,-0.05511811023622047,-0.007874015748031496,-0.015748031496062992,-0.015748031496062992,0.1889763779527559,-0.015748031496062992,-0.047244094488188976
4.740340232849121,0.2125984251968504,0.05511811023622047,0.015748031496062992,0.015748031496062992,0.08661417322834646,-0.08661417322834646,0.047244094488188976,0.047244094488188976
4.740429639816284,0.1732283464566929,0.05511811023622047,0.015748031496062992,-0.007874015748031496,-0.06299212598425197,-0.2204724409448819,-0.06299212598425197,0.03937007874015748
4.740678191184998,-0.11811023622047244,-0.015748031496062992,0.007874015748031496,0.007874015748031496,0.015748031496062992,0.30708661417322836,0.1732283464566929,0.0
4.740926742553711,0.07874015748031496,0.023622047244094488,0.015748031496062992,0.031496062992125984,0.031496062992125984,-0.11023622047244094,-0.007874015748031496,0.007874015748031496
4.741031289100647,-0.047244094488188976,0.0,0.015748031496062992,0.023622047244094488,0.07874015748031496,0.031496062992125984,0.007874015748031496,-0.031496062992125984
4.741135835647583,0.05511811023622047,0.007874015748031496,-0.015748031496062992,-0.007874015748031496,-0.03937007874015748,0.07086614173228346,0.031496062992125984,0.0
4.741334319114685,-0.007874015748031496,-0.007874015748031496,-0.023622047244094488,-0.015748031496062992,0.0,-0.12598425196850394,-0.047244094488188976,-0.031496062992125984
4.741532802581787,-0.015748031496062992,-0.015748031496062992,-0.015748031496062992,-0.031496062992125984,-0.05511811023622047,0.1732283464566929,-0.007874015748031496,-0.031496062992125984
4.741628289222717,-0.05511811023622047,-0.007874015748031496,0.007874015748031496,0.015748031496062992,0.07086614173228346,0.4409448818897638,-0.06299212598425197,-0.015748031496062992
4.7417237758636475,-0.007874015748031496,0.0,-0.007874015748031496,0.03937007874015748,0.2283464566929134,0.03937007874015748,0.03937007874015748,-0.007874015748031496
4.741942763328552,0.14173228346456693,0.03937007874015748,0.023622047244094488,0.023622047244094488,0.0,-0.3700787401574803,-0.12598425196850394,0.031496062992125984
4.742161750793457,-0.10236220472440945,-0.03937007874015748,-0.007874015748031496,-0.031496062992125984,-0.09448818897637795,0.047244094488188976,-0.023622047244094488,-0.023622047244094488
4.742256283760071,-0.13385826771653545,-0.07874015748031496,-0.06299212598425197,-0.05511811023622047,-0.07874015748031496,-0.33070866141732286,-0.015748031496062992,-0.05511811023622047
4.742350816726685,0.13385826771653545,0.047244094488188976,0.0,-0.015748031496062992,-0.031496062992125984,0.14173228346456693,0.031496062992125984,0.031496062992125984
4.742625832557678,0.0,0.007874015748031496,0.007874015748031496,0.015748031496062992,0.023622047244094488,-0.5669291338582677,0.05511811023622047,0.0
4.742900848388672,-0.05511811023622047,-0.015748031496062992,0.0,0.015748031496062992,0.031496062992125984,-0.11811023622047244,0.015748031496062992,0.007874015748031496
4.743082404136658,-0.023622047244094488,-0.007874015748031496,0.007874015748031496,0.03937007874015748,0.031496062992125984,0.5354330708661418,-0.05511811023622047,-0.031496062992125984
4.7432639598846436,0.08661417322834646,0.023622047244094488,0.007874015748031496,-0.015748031496062992,-0.08661417322834646,-0.23622047244094488,0.07874015748031496,-0.015748031496062992
4.743571400642395,-0.023622047244094488,-0.015748031496062992,0.0,0.007874015748031496,-0.03937007874015748,0.15748031496062992,0.11023622047244094,0.023622047244094488
4.7438788414001465,-0.06299212598425197,-0.015748031496062992,-0.007874015748031496,0.0,-0.015748031496062992,0.14173228346456693,-0.09448818897637795,-0.023622047244094488
4.744027256965637,0.03937007874015748,0.007874015748031496,-0.023622047244094488,-0.05511811023622047,-0.08661417322834646,-0.25196850393700787,0.03937007874015748,-0.015748031496062992
4.744175672531128,0.03937007874015748,0.007874015748031496,-0.023622047244094488,-0.047244094488188976,-0.023622047244094488,0.16535433070866143,-0.023622047244094488,0.0
4.744535803794861,-0.05511811023622047,-0.007874015748031496,-0.007874015748031496,-0.007874015748031496,-0.007874015748031496,0.18110236220472442,-0.07874015748031496,-0.023622047244094488
4.744895935058594,0.007874015748031496,-0.031496062992125984,-0.023622047244094488,-0.007874015748031496,0.07086614173228346,-0.031496062992125984,-0.031496062992125984,-0.015748031496062992
4.74498987197876,0.007874015748031496,0.007874015748031496,0.007874015748031496,-0.03937007874015748,-0.16535433070866143,-0.12598425196850394,0.09448818897637795,0.023622047244094488
4.745083808898926,0.03937007874015748,0.007874015748031496,0.007874015748031496,-0.007874015748031496,-0.015748031496062992,0.2125984251968504,-0.07874015748031496,0.0
4.745356798171997,-0.047244094488188976,-0.023622047244094488,-0.007874015748031496,-0.015748031496062992,-0.023622047244094488,-0.031496062992125984,-0.031496062992125984,-0.023622047244094488
4.745629787445068,0.015748031496062992,0.0,-0.007874015748031496,0.007874015748031496,0.0,0.0,0.023622047244094488,-0.007874015748031496
4.7457756996154785,-0.03937007874015748,-0.031496062992125984,-0.007874015748031496,0.0,0.015748031496062992,-0.2677165354330709,0.07086614173228346,-0.007874015748031496
4.745921611785889,0.05511811023622047,0.015748031496062992,0.0,0.0,-0.07086614173228346,-0.10236220472440945,0.08661417322834646,0.023622047244094488
4.746260166168213,-0.015748031496062992,0.0,-0.015748031496062992,-0.05511811023622047,-0.07086614173228346,-0.09448818897637795,-0.25984251968503935,-0.03937007874015748
4.746598720550537,-0.031496062992125984,-0.031496062992125984,-0.03937007874015748,-0.031496062992125984,0.007874015748031496,0.7086614173228346,-0.1889763779527559,-0.031496062992125984
4.746742248535156,0.007874015748031496,0.0,0.0,0.007874015748031496,0.03937007874015748,-0.11023622047244094,0.10236220472440945,0.023622047244094488
4.746885776519775,-0.047244094488188976,-0.007874015748031496,0.007874015748031496,0.0,-0.03937007874015748,0.5039370078740157,-0.05511811023622047,0.0
4.747215270996094,0.015748031496062992,-0.007874015748031496,0.015748031496062992,0.007874015748031496,-0.03937007874015748,-0.2440944881889764,-0.03937007874015748,-0.015748031496062992
4.747544765472412,0.0,-0.007874015748031496,0.007874015748031496,0.06299212598425197,0.13385826771653545,-0.07874015748031496,-0.14173228346456693,0.0
4.747654318809509,-0.047244094488188976,-0.023622047244094488,-0.031496062992125984,-0.047244094488188976,-0.25196850393700787,0.047244094488188976,-0.05511811023622047,-0.11023622047244094
4.7477638721466064,0.031496062992125984,-0.007874015748031496,-0.015748031496062992,-0.015748031496062992,0.08661417322834646,-0.31496062992125984,-0.023622047244094488,0.007874015748031496
4.748011231422424,-0.015748031496062992,0.0,-0.015748031496062992,-0.015748031496062992,0.047244094488188976,0.007874015748031496,0.047244094488188976,0.007874015748031496
