,emg1,emg2,emg3,emg4,emg5,emg6,emg7,emg8
4.551559925079346,-0.015748031496062992,0.0,-0.023622047244094488,-0.015748031496062992,-0.007874015748031496,-0.007874015748031496,-0.023622047244094488,-0.023622047244094488
4.552040338516235,-0.007874015748031496,0.007874015748031496,0.0,0.0,-0.015748031496062992,0.0,-0.007874015748031496,-0.007874015748031496
4.552520751953125,0.0,-0.015748031496062992,-0.007874015748031496,-0.007874015748031496,-0.015748031496062992,-0.007874015748031496,-0.007874015748031496,0.0
4.552689790725708,-0.015748031496062992,-0.03937007874015748,0.0,-0.007874015748031496,-0.015748031496062992,-0.015748031496062992,-0.007874015748031496,-0.007874015748031496
4.552858829498291,-0.015748031496062992,-0.007874015748031496,-0.015748031496062992,0.0,-0.015748031496062992,-0.007874015748031496,0.0,-0.015748031496062992
4.553213357925415,-0.015748031496062992,0.007874015748031496,-0.007874015748031496,-0.015748031496062992,-0.007874015748031496,0.0,-0.015748031496062992,0.0
4.553567886352539,-0.007874015748031496,0.007874015748031496,-0.007874015748031496,0.0,0.0,-0.007874015748031496,0.0,-0.023622047244094488
4.55373477935791,-0.015748031496062992,-0.03937007874015748,-0.031496062992125984,-0.023622047244094488,-0.007874015748031496,-0.015748031496062992,-0.015748031496062992,-0.015748031496062992
4.553901672363281,0.007874015748031496,0.0,-0.007874015748031496,-0.007874015748031496,-0.007874015748031496,-0.007874015748031496,-0.015748031496062992,-0.007874015748031496
4.554257750511169,-0.007874015748031496,-0.031496062992125984,-0.023622047244094488,-0.007874015748031496,-0.007874015748031496,-0.007874015748031496,-0.015748031496062992,-0.015748031496062992
4.554613828659058,0.0,0.015748031496062992,0.007874015748031496,-0.015748031496062992,-0.023622047244094488,-0.015748031496062992,0.0,0.0
4.554844260215759,-0.007874015748031496,0.0,-0.015748031496062992,-0.015748031496062992,-0.007874015748031496,-0.007874015748031496,-0.007874015748031496,-0.007874015748031496
4.555074691772461,-0.015748031496062992,-0.03937007874015748,-0.007874015748031496,-0.007874015748031496,-0.015748031496062992,-0.023622047244094488,-0.015748031496062992,-0.015748031496062992
4.555462837219238,-0.007874015748031496,0.0,-0.007874015748031496,-0.007874015748031496,-0.023622047244094488,-0.015748031496062992,0.0,-0.015748031496062992
4.555850982666016,0.007874015748031496,0.0,-0.023622047244094488,0.0,-0.007874015748031496,-0.007874015748031496,-0.015748031496062992,-0.007874015748031496
4.5560063123703,0.0,-0.007874015748031496,-0.015748031496062992,-0.007874015748031496,-0.015748031496062992,-0.007874015748031496,0.0,-0.007874015748031496
4.556161642074585,0.0,0.0,0.0,0.0,-0.023622047244094488,-0.007874015748031496,0.007874015748031496,0.0
4.556538701057434,0.007874015748031496,0.0,0.0,0.0,-0.015748031496062992,-0.015748031496062992,-0.015748031496062992,0.0
4.556915760040283,0.007874015748031496,0.03937007874015748,-0.007874015748031496,-0.007874015748031496,-0.007874015748031496,0.0,0.007874015748031496,0.015748031496062992
4.557081818580627,-0.023622047244094488,-0.05511811023622047,-0.015748031496062992,-0.015748031496062992,0.015748031496062992,0.015748031496062992,0.0,0.015748031496062992
4.557247877120972,-0.015748031496062992,-0.023622047244094488,0.0,-0.007874015748031496,0.015748031496062992,0.007874015748031496,0.0,0.007874015748031496
4.5576618909835815,0.015748031496062992,0.007874015748031496,0.007874015748031496,0.007874015748031496,0.007874015748031496,0.0,0.0,-0.007874015748031496
4.558075904846191,-0.015748031496062992,0.0,0.015748031496062992,0.007874015748031496,0.0,-0.007874015748031496,0.0,-0.007874015748031496
4.558237433433533,0.015748031496062992,-0.007874015748031496,-0.015748031496062992,0.007874015748031496,-0.015748031496062992,-0.023622047244094488,-0.007874015748031496,0.0
4.558398962020874,-0.007874015748031496,0.0,-0.007874015748031496,-0.015748031496062992,-0.007874015748031496,0.007874015748031496,-0.015748031496062992,-0.015748031496062992
4.558765411376953,-0.007874015748031496,-0.015748031496062992,-0.007874015748031496,-0.015748031496062992,0.0,0.007874015748031496,0.007874015748031496,0.007874015748031496
4.559131860733032,0.0,0.0,-0.007874015748031496,0.0,0.007874015748031496,-0.007874015748031496,-0.007874015748031496,0.007874015748031496
4.559303402900696,0.0,-0.015748031496062992,0.007874015748031496,-0.007874015748031496,-0.007874015748031496,0.0,-0.007874015748031496,0.0
4.559474945068359,0.0,0.015748031496062992,0.007874015748031496,-0.007874015748031496,0.0,-0.007874015748031496,0.007874015748031496,0.0
4.5598384141922,-0.007874015748031496,-0.015748031496062992,-0.007874015748031496,-0.015748031496062992,-0.007874015748031496,-0.007874015748031496,-0.007874015748031496,0.0
4.56020188331604,0.007874015748031496,0.0,-0.007874015748031496,-0.015748031496062992,-0.007874015748031496,0.0,-0.015748031496062992,0.0
4.560373783111572,-0.015748031496062992,-0.023622047244094488,-0.007874015748031496,0.0,-0.007874015748031496,-0.007874015748031496,0.007874015748031496,-0.007874015748031496
4.5605456829071045,0.0,-0.015748031496062992,-0.007874015748031496,-0.007874015748031496,0.0,-0.007874015748031496,0.0,0.0
4.560901761054993,0.0,0.007874015748031496,0.0,0.007874015748031496,0.007874015748031496,-0.007874015748031496,-0.007874015748031496,0.0
4.561257839202881,-0.007874015748031496,-0.023622047244094488,-0.015748031496062992,-0.007874015748031496,-0.007874015748031496,-0.007874015748031496,-0.007874015748031496,-0.007874015748031496
4.56165885925293,-0.015748031496062992,0.015748031496062992,0.0,0.0,0.0,-0.015748031496062992,-0.015748031496062992,0.0
4.5620598793029785,-0.007874015748031496,0.0,0.0,-0.007874015748031496,-0.015748031496062992,-0.007874015748031496,-0.007874015748031496,0.0
4.562479853630066,-0.007874015748031496,0.0,0.0,0.0,0.0,0.0,0.007874015748031496,0.0
4.562899827957153,-0.015748031496062992,0.007874015748031496,-0.007874015748031496,-0.007874015748031496,-0.007874015748031496,0.007874015748031496,-0.007874015748031496,0.0
4.56341028213501,-0.015748031496062992,0.0,0.0,-0.007874015748031496,0.0,0.0,0.007874015748031496,0.0
4.563920736312866,-0.007874015748031496,-0.023622047244094488,0.007874015748031496,-0.007874015748031496,0.007874015748031496,0.0,-0.007874015748031496,-0.015748031496062992
4.564483284950256,-0.015748031496062992,-0.015748031496062992,-0.007874015748031496,-0.007874015748031496,-0.023622047244094488,-0.007874015748031496,-0.023622047244094488,0.0
4.5650458335876465,-0.015748031496062992,0.0,0.0,-0.015748031496062992,0.0,-0.007874015748031496,-0.007874015748031496,-0.007874015748031496
4.565242886543274,0.0,-0.007874015748031496,0.007874015748031496,0.0,-0.007874015748031496,0.0,-0.007874015748031496,-0.007874015748031496
4.565439939498901,-0.023622047244094488,-0.007874015748031496,-0.007874015748031496,-0.007874015748031496,0.0,0.0,0.007874015748031496,-0.007874015748031496
4.565884828567505,-0.007874015748031496,0.0,-0.023622047244094488,-0.015748031496062992,-0.015748031496062992,-0.015748031496062992,-0.007874015748031496,-0.015748031496062992
4.566329717636108,-0.007874015748031496,0.0,0.0,0.0,-0.015748031496062992,-0.015748031496062992,-0.007874015748031496,-0.015748031496062992
4.566511750221252,0.007874015748031496,0.015748031496062992,0.0,-0.015748031496062992,-0.023622047244094488,-0.007874015748031496,-0.007874015748031496,0.0
4.5666937828063965,-0.007874015748031496,0.015748031496062992,-0.015748031496062992,-0.023622047244094488,-0.007874015748031496,-0.007874015748031496,-0.015748031496062992,0.0
4.5671387910842896,0.0,-0.023622047244094488,0.007874015748031496,-0.007874015748031496,-0.007874015748031496,-0.007874015748031496,0.0,-0.015748031496062992
4.567583799362183,-0.023622047244094488,-0.015748031496062992,0.0,-0.007874015748031496,-0.007874015748031496,-0.015748031496062992,-0.023622047244094488,-0.015748031496062992
4.567842245101929,-0.007874015748031496,-0.007874015748031496,0.007874015748031496,-0.007874015748031496,0.015748031496062992,0.0,-0.007874015748031496,-0.007874015748031496
4.568100690841675,0.007874015748031496,0.015748031496062992,-0.015748031496062992,-0.007874015748031496,-0.007874015748031496,-0.007874015748031496,-0.007874015748031496,0.0
4.568532705307007,0.0,-0.015748031496062992,-0.023622047244094488,-0.007874015748031496,0.0,-0.007874015748031496,0.0,0.0
4.568964719772339,0.007874015748031496,0.007874015748031496,-0.007874015748031496,-0.015748031496062992,-0.007874015748031496,0.0,-0.015748031496062992,-0.007874015748031496
4.569190263748169,-0.023622047244094488,-0.007874015748031496,-0.007874015748031496,-0.007874015748031496,-0.007874015748031496,-0.007874015748031496,-0.007874015748031496,-0.023622047244094488
4.569415807723999,0.0,-0.007874015748031496,0.0,0.0,-0.007874015748031496,-0.007874015748031496,-0.015748031496062992,-0.007874015748031496
4.569871306419373,-0.031496062992125984,-0.007874015748031496,-0.007874015748031496,0.0,-0.015748031496062992,-0.007874015748031496,0.0,0.0
4.570326805114746,0.015748031496062992,-0.015748031496062992,-0.007874015748031496,-0.015748031496062992,0.0,0.0,0.0,-0.007874015748031496
4.570573210716248,0.007874015748031496,-0.007874015748031496,-0.007874015748031496,-0.007874015748031496,0.0,-0.023622047244094488,-0.023622047244094488,0.0
4.570819616317749,-0.007874015748031496,-0.007874015748031496,-0.007874015748031496,0.007874015748031496,-0.015748031496062992,-0.007874015748031496,0.0,0.0
4.5712902545928955,0.0,-0.023622047244094488,-0.007874015748031496,-0.007874015748031496,-0.007874015748031496,-0.015748031496062992,-0.015748031496062992,-0.015748031496062992
4.571760892868042,-0.015748031496062992,-0.031496062992125984,-0.023622047244094488,-0.007874015748031496,-0.023622047244094488,0.0,0.0,-0.015748031496062992
4.572012901306152,-0.007874015748031496,0.007874015748031496,-0.007874015748031496,-0.015748031496062992,-0.007874015748031496,0.0,0.007874015748031496,0.0
4.572264909744263,0.007874015748031496,-0.015748031496062992,-0.007874015748031496,-0.015748031496062992,0.0,-0.007874015748031496,-0.007874015748031496,-0.007874015748031496
4.572636365890503,-0.023622047244094488,-0.015748031496062992,-0.023622047244094488,-0.023622047244094488,-0.015748031496062992,0.0,0.0,-0.023622047244094488
4.573007822036743,-0.007874015748031496,-0.007874015748031496,0.0,-0.015748031496062992,0.007874015748031496,-0.015748031496062992,-0.007874015748031496,-0.015748031496062992
4.573220252990723,-0.007874015748031496,-0.023622047244094488,-0.007874015748031496,-0.007874015748031496,-0.007874015748031496,-0.007874015748031496,-0.007874015748031496,-0.015748031496062992
4.573432683944702,0.0,-0.015748031496062992,0.007874015748031496,-0.007874015748031496,0.007874015748031496,-0.007874015748031496,0.0,-0.007874015748031496
4.573821187019348,0.0,0.0,-0.015748031496062992,0.0,0.0,0.0,-0.007874015748031496,-0.007874015748031496
4.574209690093994,-0.015748031496062992,0.0,-0.007874015748031496,0.0,0.0,-0.007874015748031496,-0.007874015748031496,0.007874015748031496
4.574396133422852,0.0,-0.007874015748031496,0.0,0.007874015748031496,-0.007874015748031496,0.0,0.0,-0.015748031496062992
4.574582576751709,-0.007874015748031496,0.0,-0.015748031496062992,-0.007874015748031496,0.0,-0.007874015748031496,0.0,-0.015748031496062992
4.575015664100647,0.007874015748031496,-0.015748031496062992,-0.015748031496062992,-0.015748031496062992,-0.007874015748031496,0.0,0.0,-0.015748031496062992
4.575448751449585,-0.007874015748031496,-0.007874015748031496,-0.023622047244094488,0.0,-0.031496062992125984,-0.023622047244094488,0.007874015748031496,-0.015748031496062992
4.575655698776245,-0.007874015748031496,0.015748031496062992,-0.007874015748031496,-0.007874015748031496,-0.015748031496062992,0.0,-0.007874015748031496,-0.007874015748031496
4.575862646102905,-0.023622047244094488,-0.047244094488188976,0.0,0.0,-0.007874015748031496,0.0,-0.007874015748031496,-0.007874015748031496
4.576274156570435,-0.015748031496062992,-0.023622047244094488,-0.007874015748031496,-0.007874015748031496,-0.007874015748031496,0.0,0.0,0.0
4.576685667037964,-0.007874015748031496,-0.007874015748031496,0.0,-0.015748031496062992,0.007874015748031496,-0.007874015748031496,-0.007874015748031496,-0.007874015748031496
4.576932191848755,-0.007874015748031496,0.0,-0.007874015748031496,0.0,-0.023622047244094488,-0.015748031496062992,-0.023622047244094488,-0.007874015748031496
4.577178716659546,-0.015748031496062992,0.015748031496062992,-0.007874015748031496,-0.015748031496062992,-0.023622047244094488,-0.007874015748031496,-0.007874015748031496,-0.007874015748031496
4.577669739723206,-0.007874015748031496,-0.007874015748031496,-0.007874015748031496,-0.007874015748031496,0.0,-0.015748031496062992,-0.007874015748031496,-0.007874015748031496
4.578160762786865,0.0,0.015748031496062992,-0.007874015748031496,-0.015748031496062992,-0.007874015748031496,0.0,-0.015748031496062992,0.0
4.578366756439209,-0.007874015748031496,-0.031496062992125984,0.0,0.0,0.0,-0.015748031496062992,0.007874015748031496,-0.007874015748031496
4.578572750091553,-0.007874015748031496,0.015748031496062992,-0.007874015748031496,-0.007874015748031496,0.0,-0.007874015748031496,-0.007874015748031496,0.007874015748031496
4.57900333404541,-0.007874015748031496,-0.007874015748031496,-0.007874015748031496,-0.007874015748031496,-0.007874015748031496,-0.007874015748031496,-0.007874015748031496,-0.007874015748031496
4.579433917999268,0.0,-0.007874015748031496,0.0,0.007874015748031496,-0.015748031496062992,0.0,-0.007874015748031496,0.0
4.579669833183289,-0.007874015748031496,-0.031496062992125984,-0.007874015748031496,-0.007874015748031496,-0.007874015748031496,0.0,-0.007874015748031496,0.0
4.57990574836731,-0.015748031496062992,-0.03937007874015748,-0.015748031496062992,0.0,-0.015748031496062992,0.0,0.0,-0.007874015748031496
4.580386281013489,0.007874015748031496,0.007874015748031496,0.0,-0.007874015748031496,-0.007874015748031496,-0.007874015748031496,0.007874015748031496,0.0
4.580866813659668,-0.015748031496062992,-0.007874015748031496,0.0,-0.015748031496062992,0.0,0.0,0.0,-0.007874015748031496
4.581120848655701,-0.007874015748031496,-0.007874015748031496,-0.015748031496062992,-0.015748031496062992,0.007874015748031496,-0.015748031496062992,-0.015748031496062992,-0.015748031496062992
4.581374883651733,0.007874015748031496,-0.015748031496062992,0.0,-0.007874015748031496,0.0,-0.007874015748031496,-0.007874015748031496,-0.007874015748031496
4.58177125453949,-0.015748031496062992,-0.015748031496062992,-0.015748031496062992,0.0,-0.015748031496062992,-0.007874015748031496,-0.023622047244094488,-0.023622047244094488
4.582167625427246,-0.015748031496062992,-0.007874015748031496,-0.007874015748031496,-0.007874015748031496,-0.015748031496062992,-0.007874015748031496,0.0,-0.007874015748031496
4.5823692083358765,-0.015748031496062992,-0.023622047244094488,-0.015748031496062992,-0.007874015748031496,-0.023622047244094488,-0.007874015748031496,0.0,-0.015748031496062992
4.582570791244507,-0.007874015748031496,0.0,-0.015748031496062992,-0.015748031496062992,-0.015748031496062992,-0.007874015748031496,-0.015748031496062992,-0.015748031496062992
4.583085775375366,0.0,0.0,0.0,-0.007874015748031496,-0.015748031496062992,0.007874015748031496,-0.007874015748031496,0.0
4.583600759506226,-0.015748031496062992,-0.03937007874015748,-0.031496062992125984,-0.015748031496062992,0.0,-0.007874015748031496,-0.007874015748031496,-0.007874015748031496
4.583866715431213,-0.015748031496062992,0.023622047244094488,-0.007874015748031496,-0.015748031496062992,0.0,-0.007874015748031496,-0.015748031496062992,0.007874015748031496
4.584132671356201,0.007874015748031496,-0.007874015748031496,0.0,-0.015748031496062992,-0.007874015748031496,-0.023622047244094488,-0.007874015748031496,-0.007874015748031496
4.584613680839539,-0.015748031496062992,0.0,0.007874015748031496,0.0,0.007874015748031496,0.0,0.0,-0.007874015748031496
4.585094690322876,-0.007874015748031496,-0.03937007874015748,-0.023622047244094488,-0.015748031496062992,0.0,-0.015748031496062992,-0.007874015748031496,-0.015748031496062992
4.5861111879348755,-0.015748031496062992,0.007874015748031496,-0.015748031496062992,-0.015748031496062992,-0.015748031496062992,-0.007874015748031496,0.0,0.0
4.587127685546875,-0.015748031496062992,-0.023622047244094488,-0.015748031496062992,-0.007874015748031496,-0.007874015748031496,-0.007874015748031496,0.0,0.0
4.587640166282654,0.0,0.0,0.0,-0.007874015748031496,-0.007874015748031496,0.0,0.007874015748031496,-0.007874015748031496
4.588152647018433,-0.007874015748031496,0.015748031496062992,0.007874015748031496,0.0,-0.015748031496062992,-0.007874015748031496,-0.015748031496062992,0.0
4.588399171829224,-0.007874015748031496,0.007874015748031496,0.0,0.0,-0.007874015748031496,0.0,-0.007874015748031496,-0.015748031496062992
4.588645696640015,-0.015748031496062992,0.0,0.007874015748031496,-0.015748031496062992,-0.007874015748031496,0.0,-0.015748031496062992,-0.015748031496062992
4.589223742485046,0.0,-0.015748031496062992,-0.015748031496062992,-0.015748031496062992,-0.007874015748031496,-0.015748031496062992,-0.007874015748031496,-0.007874015748031496
4.589801788330078,-0.007874015748031496,0.023622047244094488,0.0,-0.015748031496062992,0.0,0.0,0.0,-0.015748031496062992
4.589972376823425,-0.007874015748031496,-0.015748031496062992,-0.015748031496062992,-0.007874015748031496,-0.015748031496062992,-0.007874015748031496,0.0,-0.015748031496062992
4.5901429653167725,0.0,0.015748031496062992,-0.023622047244094488,0.007874015748031496,0.0,-0.015748031496062992,0.0,0.0
4.5905338525772095,-0.007874015748031496,-0.031496062992125984,-0.007874015748031496,0.0,-0.015748031496062992,-0.015748031496062992,-0.015748031496062992,0.007874015748031496
4.5909247398376465,0.0,0.0,-0.015748031496062992,-0.015748031496062992,-0.015748031496062992,-0.007874015748031496,-0.007874015748031496,-0.015748031496062992
4.591075778007507,0.007874015748031496,0.0,0.015748031496062992,0.007874015748031496,0.0,-0.007874015748031496,-0.007874015748031496,0.007874015748031496
4.591226816177368,-0.007874015748031496,-0.015748031496062992,-0.023622047244094488,-0.023622047244094488,-0.007874015748031496,-0.023622047244094488,-0.015748031496062992,-0.007874015748031496
4.591817259788513,-0.007874015748031496,-0.007874015748031496,-0.015748031496062992,-0.015748031496062992,-0.007874015748031496,0.0,-0.007874015748031496,-0.007874015748031496
4.592407703399658,-0.007874015748031496,0.0,-0.015748031496062992,0.0,0.0,-0.007874015748031496,0.0,-0.007874015748031496
4.592618823051453,0.0,-0.023622047244094488,-0.007874015748031496,0.0,-0.007874015748031496,-0.023622047244094488,0.0,-0.007874015748031496
4.592829942703247,-0.007874015748031496,-0.007874015748031496,-0.007874015748031496,0.0,-0.007874015748031496,0.0,-0.015748031496062992,-0.007874015748031496
4.5932663679122925,0.0,0.0,0.0,0.0,-0.007874015748031496,-0.015748031496062992,-0.007874015748031496,-0.007874015748031496
4.593702793121338,-0.015748031496062992,-0.023622047244094488,0.0,-0.007874015748031496,-0.007874015748031496,-0.007874015748031496,-0.015748031496062992,0.007874015748031496
4.593928813934326,-0.007874015748031496,-0.015748031496062992,-0.007874015748031496,-0.023622047244094488,-0.007874015748031496,0.0,-0.007874015748031496,-0.007874015748031496
4.5941548347473145,0.007874015748031496,0.0,0.0,-0.007874015748031496,0.0,-0.007874015748031496,0.007874015748031496,-0.007874015748031496
4.594585299491882,0.0,-0.015748031496062992,-0.007874015748031496,0.0,0.0,-0.023622047244094488,-0.007874015748031496,0.0
4.59501576423645,0.015748031496062992,0.015748031496062992,0.0,-0.007874015748031496,0.0,0.0,-0.015748031496062992,-0.007874015748031496
4.5952112674713135,0.0,-0.023622047244094488,-0.015748031496062992,0.0,0.0,-0.023622047244094488,-0.015748031496062992,-0.007874015748031496
4.595406770706177,-0.007874015748031496,0.0,0.007874015748031496,0.0,-0.015748031496062992,-0.007874015748031496,-0.023622047244094488,-0.007874015748031496
4.595829248428345,-0.023622047244094488,-0.007874015748031496,-0.007874015748031496,-0.007874015748031496,-0.015748031496062992,0.0,-0.007874015748031496,-0.023622047244094488
4.596251726150513,-0.015748031496062992,0.0,0.0,0.0,0.0,-0.015748031496062992,0.0,-0.007874015748031496
4.596477746963501,-0.015748031496062992,-0.015748031496062992,-0.015748031496062992,0.0,-0.023622047244094488,-0.007874015748031496,-0.007874015748031496,0.0
4.596703767776489,-0.007874015748031496,-0.023622047244094488,-0.023622047244094488,0.0,-0.015748031496062992,-0.007874015748031496,-0.007874015748031496,-0.007874015748031496
4.597240328788757,-0.015748031496062992,-0.015748031496062992,-0.007874015748031496,-0.007874015748031496,0.007874015748031496,-0.015748031496062992,0.007874015748031496,-0.007874015748031496
4.597776889801025,-0.007874015748031496,-0.007874015748031496,0.0,0.007874015748031496,0.0,-0.015748031496062992,-0.007874015748031496,-0.007874015748031496
4.597948312759399,-0.007874015748031496,-0.023622047244094488,-0.007874015748031496,-0.007874015748031496,0.0,0.0,-0.007874015748031496,-0.007874015748031496
4.598119735717773,0.0,0.007874015748031496,0.007874015748031496,0.0,-0.015748031496062992,-0.015748031496062992,0.0,-0.007874015748031496
4.598494291305542,-0.007874015748031496,0.0,-0.015748031496062992,-0.023622047244094488,0.007874015748031496,-0.007874015748031496,-0.007874015748031496,0.0
4.5988688468933105,-0.007874015748031496,-0.007874015748031496,-0.015748031496062992,-0.023622047244094488,-0.015748031496062992,-0.007874015748031496,-0.007874015748031496,-0.015748031496062992
4.599061369895935,0.0,-0.03937007874015748,-0.023622047244094488,-0.007874015748031496,-0.007874015748031496,-0.023622047244094488,-0.015748031496062992,-0.015748031496062992
4.59925389289856,0.0,0.007874015748031496,0.0,-0.007874015748031496,0.0,0.0,0.0,0.0
4.599767327308655,-0.007874015748031496,-0.007874015748031496,0.0,-0.007874015748031496,-0.007874015748031496,-0.007874015748031496,-0.015748031496062992,-0.007874015748031496
4.60028076171875,-0.015748031496062992,-0.015748031496062992,-0.007874015748031496,0.0,-0.007874015748031496,0.007874015748031496,0.007874015748031496,-0.015748031496062992
4.600484251976013,-0.007874015748031496,0.0,0.0,-0.007874015748031496,-0.015748031496062992,-0.007874015748031496,-0.015748031496062992,0.0
4.600687742233276,-0.007874015748031496,-0.015748031496062992,-0.007874015748031496,-0.007874015748031496,0.007874015748031496,-0.007874015748031496,0.0,-0.015748031496062992
4.601057291030884,0.0,0.0,-0.015748031496062992,-0.007874015748031496,-0.015748031496062992,-0.015748031496062992,-0.007874015748031496,-0.007874015748031496
4.601426839828491,0.007874015748031496,0.0,-0.015748031496062992,-0.007874015748031496,-0.015748031496062992,-0.015748031496062992,0.0,0.0
4.601698279380798,-0.007874015748031496,0.0,-0.015748031496062992,-0.007874015748031496,-0.007874015748031496,-0.015748031496062992,-0.015748031496062992,0.0
4.6019697189331055,-0.015748031496062992,0.0,-0.007874015748031496,-0.007874015748031496,0.0,0.0,-0.007874015748031496,-0.015748031496062992
4.6025097370147705,0.007874015748031496,0.007874015748031496,-0.007874015748031496,0.0,-0.015748031496062992,0.0,0.0,-0.015748031496062992
4.6030497550964355,0.0,0.0,0.0,0.0,-0.007874015748031496,-0.007874015748031496,-0.007874015748031496,-0.015748031496062992
4.603251814842224,-0.015748031496062992,-0.015748031496062992,-0.007874015748031496,-0.007874015748031496,0.0,0.0,0.0,-0.015748031496062992
4.603453874588013,0.0,0.007874015748031496,-0.007874015748031496,-0.007874015748031496,-0.007874015748031496,-0.007874015748031496,-0.015748031496062992,0.0
4.603914380073547,-0.015748031496062992,-0.023622047244094488,-0.015748031496062992,0.007874015748031496,-0.015748031496062992,-0.015748031496062992,-0.007874015748031496,0.0
4.604374885559082,-0.031496062992125984,-0.023622047244094488,-0.015748031496062992,-0.015748031496062992,-0.015748031496062992,0.0,-0.007874015748031496,-0.007874015748031496
4.60461688041687,0.0,0.0,0.0,-0.007874015748031496,-0.015748031496062992,-0.007874015748031496,0.0,0.0
4.604858875274658,-0.023622047244094488,-0.007874015748031496,-0.007874015748031496,-0.007874015748031496,-0.007874015748031496,-0.007874015748031496,-0.023622047244094488,-0.015748031496062992
4.605292916297913,-0.015748031496062992,-0.007874015748031496,-0.015748031496062992,-0.015748031496062992,-0.007874015748031496,-0.007874015748031496,0.015748031496062992,-0.007874015748031496
4.605726957321167,-0.007874015748031496,0.0,0.007874015748031496,-0.007874015748031496,0.007874015748031496,-0.015748031496062992,0.0,0.007874015748031496
4.605975389480591,-0.007874015748031496,-0.015748031496062992,-0.023622047244094488,-0.007874015748031496,-0.007874015748031496,0.0,-0.015748031496062992,-0.023622047244094488
4.606223821640015,0.0,-0.015748031496062992,-0.023622047244094488,-0.007874015748031496,0.0,0.0,0.0,-0.023622047244094488
4.606719732284546,0.0,0.0,0.007874015748031496,-0.007874015748031496,0.0,0.0,-0.015748031496062992,-0.015748031496062992
4.607215642929077,-0.023622047244094488,0.0,0.0,-0.007874015748031496,-0.015748031496062992,-0.015748031496062992,-0.023622047244094488,0.0
4.607409238815308,-0.007874015748031496,0.0,-0.007874015748031496,0.0,-0.015748031496062992,-0.015748031496062992,-0.007874015748031496,0.0
4.607602834701538,-0.007874015748031496,-0.007874015748031496,-0.015748031496062992,-0.015748031496062992,-0.007874015748031496,-0.007874015748031496,0.007874015748031496,0.0
4.608199834823608,-0.007874015748031496,-0.015748031496062992,-0.015748031496062992,-0.015748031496062992,0.007874015748031496,0.0,0.0,-0.015748031496062992
4.608796834945679,0.0,-0.03937007874015748,-0.015748031496062992,-0.007874015748031496,0.007874015748031496,0.0,0.0,0.0
4.608978867530823,0.007874015748031496,0.0,0.007874015748031496,-0.015748031496062992,-0.007874015748031496,-0.007874015748031496,0.007874015748031496,-0.007874015748031496
4.609160900115967,-0.007874015748031496,-0.007874015748031496,-0.015748031496062992,-0.015748031496062992,-0.007874015748031496,-0.023622047244094488,-0.015748031496062992,-0.007874015748031496
4.609549403190613,0.0,-0.007874015748031496,0.0,-0.023622047244094488,-0.007874015748031496,-0.023622047244094488,-0.015748031496062992,-0.007874015748031496
4.609937906265259,0.0,0.0,-0.015748031496062992,-0.015748031496062992,-0.023622047244094488,-0.015748031496062992,0.0,-0.015748031496062992
4.610118389129639,-0.007874015748031496,-0.015748031496062992,-0.007874015748031496,0.007874015748031496,0.0,-0.007874015748031496,0.0,0.0
4.6102988719940186,0.0,-0.031496062992125984,-0.015748031496062992,0.007874015748031496,-0.015748031496062992,-0.007874015748031496,0.0,-0.007874015748031496
4.610684871673584,-0.007874015748031496,0.0,-0.015748031496062992,-0.007874015748031496,0.007874015748031496,-0.007874015748031496,-0.015748031496062992,0.0
4.611070871353149,0.0,-0.007874015748031496,-0.007874015748031496,0.0,0.0,-0.007874015748031496,-0.015748031496062992,-0.007874015748031496
4.611274361610413,-0.007874015748031496,-0.007874015748031496,-0.031496062992125984,-0.015748031496062992,0.0,0.0,-0.007874015748031496,-0.007874015748031496
4.611477851867676,-0.007874015748031496,-0.015748031496062992,0.007874015748031496,0.0,-0.007874015748031496,-0.007874015748031496,-0.015748031496062992,-0.023622047244094488
4.611861348152161,0.007874015748031496,0.031496062992125984,0.007874015748031496,-0.007874015748031496,-0.015748031496062992,0.0,-0.015748031496062992,0.007874015748031496
4.6122448444366455,-0.007874015748031496,-0.023622047244094488,-0.015748031496062992,-0.007874015748031496,-0.007874015748031496,-0.007874015748031496,-0.007874015748031496,0.0
4.612406253814697,-0.007874015748031496,-0.007874015748031496,-0.007874015748031496,-0.023622047244094488,0.0,-0.007874015748031496,-0.007874015748031496,-0.007874015748031496
4.612567663192749,-0.015748031496062992,-0.007874015748031496,-0.007874015748031496,-0.007874015748031496,0.0,-0.007874015748031496,-0.007874015748031496,0.0
4.6129372119903564,-0.015748031496062992,-0.031496062992125984,-0.015748031496062992,-0.015748031496062992,-0.015748031496062992,0.0,-0.007874015748031496,-0.007874015748031496
4.613306760787964,-0.023622047244094488,-0.03937007874015748,-0.015748031496062992,0.0,-0.015748031496062992,-0.007874015748031496,-0.007874015748031496,-0.015748031496062992
4.613478779792786,-0.007874015748031496,0.007874015748031496,-0.015748031496062992,-0.007874015748031496,-0.007874015748031496,0.0,-0.015748031496062992,-0.007874015748031496
4.613650798797607,-0.007874015748031496,-0.007874015748031496,-0.007874015748031496,-0.007874015748031496,-0.015748031496062992,0.0,-0.007874015748031496,0.015748031496062992
4.61402428150177,-0.015748031496062992,-0.015748031496062992,-0.015748031496062992,-0.015748031496062992,-0.007874015748031496,0.0,-0.007874015748031496,-0.007874015748031496
4.614397764205933,-0.015748031496062992,-0.015748031496062992,-0.023622047244094488,0.0,-0.007874015748031496,0.007874015748031496,0.0,0.0
4.614572286605835,-0.007874015748031496,-0.023622047244094488,0.007874015748031496,0.0,-0.007874015748031496,-0.015748031496062992,-0.007874015748031496,-0.015748031496062992
4.614746809005737,0.0,-0.007874015748031496,-0.015748031496062992,-0.007874015748031496,-0.015748031496062992,-0.015748031496062992,-0.007874015748031496,-0.007874015748031496
4.615111351013184,-0.007874015748031496,0.0,0.0,-0.007874015748031496,-0.007874015748031496,-0.015748031496062992,-0.023622047244094488,0.007874015748031496
4.61547589302063,-0.007874015748031496,0.007874015748031496,0.007874015748031496,-0.007874015748031496,0.0,-0.007874015748031496,-0.015748031496062992,-0.007874015748031496
4.615662932395935,-0.007874015748031496,0.007874015748031496,0.0,-0.015748031496062992,-0.007874015748031496,-0.015748031496062992,-0.007874015748031496,-0.023622047244094488
4.61584997177124,-0.007874015748031496,0.0,0.007874015748031496,-0.007874015748031496,0.0,0.0,0.0,-0.015748031496062992
4.616199851036072,-0.007874015748031496,-0.015748031496062992,-0.023622047244094488,0.0,0.0,-0.015748031496062992,0.0,-0.015748031496062992
4.616549730300903,-0.007874015748031496,0.023622047244094488,0.0,0.0,0.0,0.007874015748031496,0.0,-0.007874015748031496
4.616769313812256,0.0,-0.015748031496062992,0.007874015748031496,-0.007874015748031496,0.0,-0.007874015748031496,-0.007874015748031496,0.0
4.616988897323608,-0.007874015748031496,-0.007874015748031496,-0.015748031496062992,-0.015748031496062992,-0.007874015748031496,-0.015748031496062992,0.0,-0.007874015748031496
4.617351293563843,-0.007874015748031496,-0.023622047244094488,-0.015748031496062992,-0.007874015748031496,-0.007874015748031496,-0.007874015748031496,0.0,-0.015748031496062992
4.617713689804077,0.0,0.0,-0.007874015748031496,-0.007874015748031496,-0.007874015748031496,-0.015748031496062992,-0.007874015748031496,-0.015748031496062992
4.617898225784302,0.0,0.0,-0.023622047244094488,-0.015748031496062992,-0.007874015748031496,0.0,-0.007874015748031496,0.0
4.618082761764526,-0.007874015748031496,-0.015748031496062992,0.0,-0.015748031496062992,-0.007874015748031496,0.0,-0.015748031496062992,-0.007874015748031496
4.618483185768127,-0.007874015748031496,-0.023622047244094488,-0.007874015748031496,-0.007874015748031496,-0.007874015748031496,-0.007874015748031496,-0.015748031496062992,-0.023622047244094488
4.6188836097717285,-0.007874015748031496,0.015748031496062992,-0.015748031496062992,0.0,-0.007874015748031496,-0.007874015748031496,0.0,-0.007874015748031496
4.619056224822998,-0.015748031496062992,0.0,-0.015748031496062992,0.0,-0.007874015748031496,-0.007874015748031496,0.0,0.0
4.619228839874268,0.0,0.0,0.0,-0.007874015748031496,-0.007874015748031496,-0.007874015748031496,0.0,-0.007874015748031496
4.6195738315582275,0.0,0.0,-0.015748031496062992,-0.007874015748031496,-0.023622047244094488,-0.015748031496062992,-0.015748031496062992,0.0
4.6199188232421875,-0.007874015748031496,-0.015748031496062992,-0.007874015748031496,-0.015748031496062992,-0.007874015748031496,-0.007874015748031496,-0.023622047244094488,0.0
4.620087385177612,-0.015748031496062992,0.007874015748031496,-0.023622047244094488,-0.007874015748031496,-0.007874015748031496,0.007874015748031496,-0.007874015748031496,0.007874015748031496
4.620255947113037,-0.007874015748031496,0.0,-0.015748031496062992,0.0,0.0,-0.015748031496062992,-0.007874015748031496,-0.007874015748031496
4.620583891868591,-0.015748031496062992,0.0,0.0,0.0,0.0,-0.007874015748031496,-0.007874015748031496,0.0
4.6209118366241455,-0.007874015748031496,0.0,-0.007874015748031496,-0.007874015748031496,-0.007874015748031496,-0.007874015748031496,-0.023622047244094488,0.0
4.621058821678162,-0.007874015748031496,-0.007874015748031496,0.0,0.007874015748031496,-0.007874015748031496,-0.015748031496062992,-0.007874015748031496,-0.007874015748031496
4.621205806732178,-0.007874015748031496,-0.015748031496062992,0.0,-0.015748031496062992,-0.007874015748031496,0.0,-0.015748031496062992,-0.007874015748031496
4.621527314186096,-0.007874015748031496,-0.015748031496062992,0.007874015748031496,-0.007874015748031496,0.0,-0.007874015748031496,-0.007874015748031496,-0.015748031496062992
4.621848821640015,-0.015748031496062992,-0.023622047244094488,-0.007874015748031496,-0.007874015748031496,-0.007874015748031496,-0.023622047244094488,0.0,-0.023622047244094488
4.622030258178711,-0.007874015748031496,-0.015748031496062992,-0.023622047244094488,-0.007874015748031496,-0.015748031496062992,-0.015748031496062992,-0.007874015748031496,-0.007874015748031496
4.622211694717407,-0.007874015748031496,-0.007874015748031496,-0.007874015748031496,-0.007874015748031496,-0.023622047244094488,-0.007874015748031496,-0.007874015748031496,0.0
4.6225796937942505,0.007874015748031496,0.023622047244094488,0.007874015748031496,-0.007874015748031496,-0.007874015748031496,0.0,0.0,-0.007874015748031496
4.622947692871094,0.0,-0.023622047244094488,-0.031496062992125984,-0.031496062992125984,-0.015748031496062992,-0.007874015748031496,-0.007874015748031496,0.0
4.623130798339844,-0.007874015748031496,-0.015748031496062992,0.0,-0.007874015748031496,-0.015748031496062992,-0.007874015748031496,-0.007874015748031496,-0.015748031496062992
4.623313903808594,-0.015748031496062992,-0.023622047244094488,-0.015748031496062992,0.0,0.0,-0.015748031496062992,-0.023622047244094488,0.0
4.6237523555755615,-0.023622047244094488,-0.03937007874015748,0.0,-0.015748031496062992,-0.007874015748031496,-0.007874015748031496,0.007874015748031496,0.0
4.624190807342529,-0.007874015748031496,-0.031496062992125984,-0.007874015748031496,0.0,-0.015748031496062992,-0.015748031496062992,0.0,0.0
4.624355792999268,0.0,0.0,-0.007874015748031496,0.0,-0.007874015748031496,0.0,-0.023622047244094488,0.0
4.624520778656006,0.0,-0.023622047244094488,-0.007874015748031496,-0.007874015748031496,-0.007874015748031496,-0.007874015748031496,-0.015748031496062992,-0.007874015748031496
4.6249552965164185,0.015748031496062992,0.015748031496062992,-0.007874015748031496,-0.015748031496062992,-0.007874015748031496,-0.007874015748031496,-0.015748031496062992,-0.007874015748031496
4.625389814376831,-0.007874015748031496,0.031496062992125984,0.007874015748031496,0.0,0.0,0.0,0.0,-0.015748031496062992
4.625560283660889,-0.023622047244094488,-0.03937007874015748,-0.007874015748031496,-0.007874015748031496,-0.007874015748031496,0.0,-0.007874015748031496,-0.007874015748031496
4.625730752944946,-0.015748031496062992,0.0,0.007874015748031496,-0.007874015748031496,0.007874015748031496,-0.015748031496062992,-0.007874015748031496,-0.015748031496062992
4.626122236251831,-0.023622047244094488,-0.015748031496062992,-0.007874015748031496,0.0,0.023622047244094488,-0.015748031496062992,-0.007874015748031496,-0.007874015748031496
4.626513719558716,0.0,-0.015748031496062992,0.0,-0.007874015748031496,-0.007874015748031496,0.0,0.007874015748031496,-0.007874015748031496
4.626681327819824,0.0,0.0,-0.007874015748031496,-0.015748031496062992,-0.007874015748031496,-0.007874015748031496,-0.007874015748031496,-0.007874015748031496
4.626848936080933,0.0,-0.023622047244094488,-0.023622047244094488,-0.007874015748031496,-0.023622047244094488,-0.007874015748031496,0.0,-0.007874015748031496
4.6272279024124146,-0.015748031496062992,-0.015748031496062992,-0.015748031496062992,0.0,-0.015748031496062992,-0.015748031496062992,-0.007874015748031496,-0.007874015748031496
4.6276068687438965,-0.007874015748031496,0.007874015748031496,-0.007874015748031496,-0.007874015748031496,0.007874015748031496,-0.007874015748031496,-0.015748031496062992,-0.023622047244094488
4.627771854400635,-0.015748031496062992,-0.007874015748031496,0.007874015748031496,-0.007874015748031496,-0.015748031496062992,-0.007874015748031496,-0.007874015748031496,-0.023622047244094488
4.627936840057373,0.0,0.007874015748031496,-0.007874015748031496,-0.007874015748031496,-0.007874015748031496,-0.015748031496062992,-0.015748031496062992,0.0
4.628316760063171,0.0,0.0,-0.007874015748031496,-0.023622047244094488,-0.015748031496062992,-0.015748031496062992,-0.007874015748031496,0.0
4.62869668006897,-0.015748031496062992,-0.023622047244094488,-0.007874015748031496,0.0,-0.007874015748031496,-0.007874015748031496,-0.015748031496062992,0.0
4.628795742988586,0.0,0.015748031496062992,0.0,-0.007874015748031496,-0.007874015748031496,-0.007874015748031496,-0.007874015748031496,-0.007874015748031496
4.628894805908203,0.0,0.007874015748031496,-0.007874015748031496,-0.015748031496062992,0.0,0.0,0.007874015748031496,-0.007874015748031496
4.6292418241500854,0.0,-0.007874015748031496,-0.015748031496062992,-0.007874015748031496,-0.015748031496062992,0.0,-0.007874015748031496,0.0
4.629588842391968,-0.007874015748031496,-0.06299212598425197,-0.023622047244094488,-0.023622047244094488,-0.015748031496062992,-0.007874015748031496,-0.007874015748031496,0.0
4.629689335823059,0.0,0.0,0.0,-0.015748031496062992,0.0,-0.007874015748031496,-0.007874015748031496,0.007874015748031496
4.62978982925415,-0.007874015748031496,-0.031496062992125984,-0.015748031496062992,0.0,-0.007874015748031496,-0.015748031496062992,-0.015748031496062992,-0.015748031496062992
4.630071759223938,-0.023622047244094488,-0.007874015748031496,-0.007874015748031496,0.0,-0.015748031496062992,0.0,-0.007874015748031496,0.0
4.630353689193726,0.0,-0.007874015748031496,-0.007874015748031496,-0.015748031496062992,-0.007874015748031496,0.0,0.0,-0.015748031496062992
4.630514740943909,0.0,0.0,-0.007874015748031496,0.0,-0.015748031496062992,-0.007874015748031496,-0.007874015748031496,0.0
4.630675792694092,0.0,0.007874015748031496,-0.015748031496062992,0.0,-0.015748031496062992,-0.007874015748031496,0.0,-0.007874015748031496
4.63108229637146,0.0,-0.023622047244094488,-0.015748031496062992,-0.015748031496062992,0.0,-0.007874015748031496,-0.007874015748031496,0.0
4.631488800048828,-0.007874015748031496,0.015748031496062992,0.0,0.007874015748031496,0.0,-0.007874015748031496,0.0,0.0
4.6316587924957275,-0.023622047244094488,-0.007874015748031496,-0.007874015748031496,-0.015748031496062992,-0.007874015748031496,-0.007874015748031496,-0.007874015748031496,-0.007874015748031496
4.631828784942627,-0.007874015748031496,-0.023622047244094488,-0.015748031496062992,-0.015748031496062992,0.0,0.0,-0.007874015748031496,-0.007874015748031496
4.632276296615601,0.0,-0.007874015748031496,-0.015748031496062992,0.0,0.0,-0.015748031496062992,-0.007874015748031496,-0.015748031496062992
4.632723808288574,-0.007874015748031496,0.015748031496062992,0.0,-0.015748031496062992,0.0,-0.015748031496062992,-0.015748031496062992,0.0
4.632909297943115,-0.015748031496062992,-0.023622047244094488,-0.023622047244094488,-0.007874015748031496,0.0,-0.015748031496062992,-0.007874015748031496,0.0
4.633094787597656,-0.015748031496062992,-0.007874015748031496,-0.015748031496062992,-0.007874015748031496,0.007874015748031496,-0.007874015748031496,0.007874015748031496,-0.007874015748031496
4.633479356765747,-0.007874015748031496,0.0,-0.007874015748031496,-0.007874015748031496,-0.007874015748031496,-0.007874015748031496,-0.007874015748031496,-0.007874015748031496
4.633863925933838,0.0,-0.015748031496062992,-0.015748031496062992,0.0,-0.015748031496062992,-0.007874015748031496,-0.007874015748031496,0.007874015748031496
4.634079337120056,-0.007874015748031496,-0.031496062992125984,-0.015748031496062992,-0.007874015748031496,-0.015748031496062992,-0.007874015748031496,-0.015748031496062992,-0.015748031496062992
4.634294748306274,-0.007874015748031496,0.015748031496062992,0.015748031496062992,-0.015748031496062992,-0.015748031496062992,-0.007874015748031496,0.0,-0.007874015748031496
4.634645342826843,0.007874015748031496,-0.007874015748031496,0.0,-0.007874015748031496,-0.015748031496062992,0.0,0.0,0.0
4.634995937347412,-0.015748031496062992,0.007874015748031496,0.0,0.007874015748031496,-0.023622047244094488,-0.007874015748031496,-0.007874015748031496,-0.015748031496062992
4.635275363922119,0.0,-0.015748031496062992,0.0,-0.015748031496062992,-0.007874015748031496,-0.007874015748031496,-0.007874015748031496,-0.015748031496062992
4.635554790496826,-0.015748031496062992,-0.023622047244094488,-0.03937007874015748,-0.015748031496062992,-0.015748031496062992,-0.015748031496062992,-0.007874015748031496,0.0
4.6359943151474,-0.023622047244094488,-0.023622047244094488,-0.007874015748031496,0.0,0.007874015748031496,-0.007874015748031496,0.0,-0.007874015748031496
4.636433839797974,0.0,-0.023622047244094488,0.0,0.0,0.0,-0.015748031496062992,-0.023622047244094488,-0.007874015748031496
4.636615872383118,-0.007874015748031496,-0.007874015748031496,0.0,0.0,-0.007874015748031496,-0.015748031496062992,-0.015748031496062992,-0.007874015748031496
4.636797904968262,-0.007874015748031496,-0.015748031496062992,-0.007874015748031496,0.0,-0.007874015748031496,0.007874015748031496,-0.007874015748031496,0.0
4.637199759483337,-0.015748031496062992,-0.015748031496062992,-0.015748031496062992,-0.007874015748031496,-0.015748031496062992,0.0,-0.007874015748031496,-0.007874015748031496
4.637601613998413,-0.007874015748031496,0.007874015748031496,-0.023622047244094488,-0.007874015748031496,0.007874015748031496,-0.007874015748031496,-0.023622047244094488,0.0
4.63780415058136,0.007874015748031496,-0.023622047244094488,-0.007874015748031496,0.007874015748031496,-0.007874015748031496,0.0,0.007874015748031496,0.0
4.638006687164307,-0.015748031496062992,-0.023622047244094488,0.0,0.007874015748031496,0.007874015748031496,-0.015748031496062992,-0.015748031496062992,-0.015748031496062992
4.638449311256409,0.007874015748031496,0.031496062992125984,0.007874015748031496,0.0,-0.007874015748031496,-0.015748031496062992,-0.007874015748031496,0.007874015748031496
4.638891935348511,-0.015748031496062992,-0.007874015748031496,-0.007874015748031496,-0.007874015748031496,-0.007874015748031496,-0.007874015748031496,0.0,-0.023622047244094488
4.6390708684921265,-0.007874015748031496,-0.007874015748031496,-0.007874015748031496,-0.007874015748031496,-0.007874015748031496,-0.015748031496062992,-0.015748031496062992,-0.015748031496062992
4.639249801635742,0.0,-0.007874015748031496,-0.007874015748031496,-0.007874015748031496,-0.007874015748031496,-0.007874015748031496,-0.023622047244094488,-0.015748031496062992
4.639625310897827,-0.007874015748031496,-0.031496062992125984,-0.023622047244094488,-0.007874015748031496,-0.007874015748031496,0.0,0.007874015748031496,-0.015748031496062992
4.640000820159912,-0.007874015748031496,-0.007874015748031496,0.0,-0.015748031496062992,-0.015748031496062992,-0.007874015748031496,0.0,0.007874015748031496
4.6401708126068115,-0.007874015748031496,0.007874015748031496,-0.015748031496062992,-0.015748031496062992,-0.007874015748031496,0.0,-0.015748031496062992,-0.007874015748031496
4.640340805053711,0.0,-0.007874015748031496,-0.007874015748031496,0.0,-0.015748031496062992,0.007874015748031496,0.0,0.0
4.64068329334259,0.0,-0.007874015748031496,-0.007874015748031496,-0.007874015748031496,-0.015748031496062992,-0.007874015748031496,-0.007874015748031496,-0.007874015748031496
4.64102578163147,0.007874015748031496,-0.007874015748031496,0.0,-0.015748031496062992,0.0,0.0,-0.007874015748031496,-0.007874015748031496
4.6411943435668945,-0.015748031496062992,-0.015748031496062992,-0.015748031496062992,-0.007874015748031496,0.0,-0.007874015748031496,0.0,-0.015748031496062992
4.641362905502319,-0.015748031496062992,0.0,0.007874015748031496,0.0,0.007874015748031496,0.0,0.0,-0.015748031496062992
4.641762852668762,-0.007874015748031496,-0.023622047244094488,-0.015748031496062992,-0.007874015748031496,-0.007874015748031496,0.0,-0.007874015748031496,-0.007874015748031496
4.642162799835205,-0.03937007874015748,-0.015748031496062992,-0.015748031496062992,-0.015748031496062992,0.0,0.0,0.007874015748031496,-0.015748031496062992
4.64235532283783,-0.007874015748031496,-0.015748031496062992,-0.015748031496062992,-0.015748031496062992,-0.015748031496062992,0.0,-0.015748031496062992,-0.007874015748031496
4.642547845840454,-0.015748031496062992,-0.007874015748031496,0.007874015748031496,-0.007874015748031496,-0.007874015748031496,-0.007874015748031496,-0.015748031496062992,0.0
4.643076419830322,-0.007874015748031496,-0.015748031496062992,0.015748031496062992,0.007874015748031496,-0.007874015748031496,-0.023622047244094488,-0.007874015748031496,0.015748031496062992
4.64360499382019,-0.007874015748031496,-0.023622047244094488,-0.031496062992125984,-0.023622047244094488,-0.015748031496062992,-0.023622047244094488,0.0,0.0
4.643767356872559,-0.015748031496062992,-0.007874015748031496,-0.015748031496062992,-0.015748031496062992,0.0,-0.007874015748031496,0.0,0.0
4.643929719924927,-0.015748031496062992,-0.007874015748031496,-0.007874015748031496,-0.015748031496062992,-0.007874015748031496,-0.015748031496062992,0.0,-0.015748031496062992
4.644501209259033,-0.007874015748031496,-0.007874015748031496,0.0,0.0,0.0,-0.015748031496062992,-0.015748031496062992,-0.007874015748031496
4.64507269859314,0.007874015748031496,0.015748031496062992,0.007874015748031496,-0.007874015748031496,0.0,0.0,-0.007874015748031496,0.0
4.645222783088684,0.007874015748031496,0.015748031496062992,0.007874015748031496,-0.007874015748031496,0.007874015748031496,0.0,-0.007874015748031496,0.0
4.6453728675842285,-0.007874015748031496,-0.07086614173228346,-0.031496062992125984,-0.015748031496062992,-0.015748031496062992,-0.015748031496062992,-0.007874015748031496,0.007874015748031496
4.645777344703674,-0.007874015748031496,-0.007874015748031496,-0.015748031496062992,-0.007874015748031496,-0.015748031496062992,-0.015748031496062992,-0.007874015748031496,0.0
4.64618182182312,0.0,-0.007874015748031496,-0.015748031496062992,-0.007874015748031496,-0.007874015748031496,-0.023622047244094488,0.007874015748031496,-0.015748031496062992
4.646498322486877,0.0,-0.007874015748031496,0.0,-0.007874015748031496,-0.015748031496062992,-0.015748031496062992,-0.007874015748031496,0.007874015748031496
4.646814823150635,0.0,0.0,-0.015748031496062992,-0.007874015748031496,0.007874015748031496,0.0,-0.007874015748031496,-0.015748031496062992
4.6474937200546265,-0.007874015748031496,0.0,-0.007874015748031496,-0.015748031496062992,0.0,0.007874015748031496,0.0,-0.015748031496062992
4.648172616958618,-0.007874015748031496,0.0,-0.015748031496062992,0.007874015748031496,-0.007874015748031496,0.007874015748031496,-0.015748031496062992,-0.007874015748031496
4.648365139961243,0.015748031496062992,0.007874015748031496,0.007874015748031496,-0.007874015748031496,0.0,0.0,0.0,-0.007874015748031496
4.648557662963867,-0.015748031496062992,-0.007874015748031496,-0.023622047244094488,0.007874015748031496,-0.023622047244094488,-0.007874015748031496,-0.007874015748031496,-0.007874015748031496
4.64899468421936,-0.007874015748031496,0.015748031496062992,-0.007874015748031496,-0.007874015748031496,-0.015748031496062992,-0.007874015748031496,-0.007874015748031496,-0.015748031496062992
4.6494317054748535,0.0,0.0,-0.007874015748031496,-0.007874015748031496,-0.023622047244094488,-0.007874015748031496,-0.007874015748031496,0.0
4.649597764015198,-0.015748031496062992,0.015748031496062992,0.007874015748031496,-0.015748031496062992,0.007874015748031496,0.0,0.0,-0.015748031496062992
4.649763822555542,-0.015748031496062992,0.015748031496062992,-0.007874015748031496,-0.007874015748031496,-0.007874015748031496,0.0,0.0,0.0
4.650264739990234,-0.015748031496062992,-0.015748031496062992,-0.015748031496062992,-0.015748031496062992,0.0,-0.015748031496062992,-0.023622047244094488,-0.007874015748031496
4.650765657424927,-0.007874015748031496,-0.015748031496062992,0.0,0.0,0.0,-0.007874015748031496,0.0,0.0
4.650922775268555,-0.015748031496062992,0.0,-0.015748031496062992,0.0,-0.007874015748031496,-0.023622047244094488,-0.007874015748031496,0.0
4.651079893112183,0.007874015748031496,0.0,0.0,-0.007874015748031496,-0.023622047244094488,-0.015748031496062992,-0.023622047244094488,0.0
4.651397347450256,0.0,0.007874015748031496,-0.007874015748031496,-0.015748031496062992,-0.015748031496062992,0.0,-0.007874015748031496,-0.015748031496062992
4.65171480178833,-0.023622047244094488,-0.031496062992125984,-0.007874015748031496,-0.015748031496062992,-0.015748031496062992,0.007874015748031496,-0.015748031496062992,-0.023622047244094488
4.651838779449463,-0.007874015748031496,-0.015748031496062992,-0.007874015748031496,-0.007874015748031496,0.0,-0.007874015748031496,0.0,-0.015748031496062992
4.651962757110596,0.0,0.007874015748031496,0.0,0.0,0.0,-0.007874015748031496,-0.007874015748031496,-0.007874015748031496
4.652298212051392,-0.007874015748031496,0.0,0.0,-0.007874015748031496,-0.007874015748031496,-0.015748031496062992,-0.007874015748031496,0.0
4.6526336669921875,0.0,-0.015748031496062992,-0.015748031496062992,-0.007874015748031496,-0.015748031496062992,-0.023622047244094488,-0.007874015748031496,-0.007874015748031496
4.652805209159851,-0.007874015748031496,0.03937007874015748,0.0,0.0,-0.007874015748031496,-0.007874015748031496,-0.007874015748031496,-0.007874015748031496
4.652976751327515,0.0,0.007874015748031496,-0.023622047244094488,-0.007874015748031496,-0.015748031496062992,0.0,-0.015748031496062992,-0.015748031496062992
4.653337717056274,-0.007874015748031496,0.0,0.0,0.0,-0.007874015748031496,-0.007874015748031496,-0.015748031496062992,-0.015748031496062992
4.653698682785034,-0.015748031496062992,0.0,0.0,0.0,0.0,-0.007874015748031496,-0.015748031496062992,-0.007874015748031496
4.653873324394226,-0.007874015748031496,-0.03937007874015748,-0.007874015748031496,-0.007874015748031496,-0.015748031496062992,-0.007874015748031496,-0.015748031496062992,0.0
4.654047966003418,-0.007874015748031496,0.0,0.0,-0.015748031496062992,-0.007874015748031496,0.0,-0.015748031496062992,0.0
4.654463887214661,-0.023622047244094488,-0.015748031496062992,-0.015748031496062992,0.0,-0.007874015748031496,0.0,0.0,0.0
4.654879808425903,0.0,0.0,-0.015748031496062992,-0.015748031496062992,-0.007874015748031496,0.0,0.007874015748031496,-0.007874015748031496
4.655054807662964,-0.007874015748031496,-0.007874015748031496,-0.023622047244094488,-0.007874015748031496,-0.007874015748031496,-0.007874015748031496,0.0,-0.015748031496062992
4.655229806900024,-0.007874015748031496,-0.007874015748031496,0.007874015748031496,0.007874015748031496,-0.007874015748031496,-0.015748031496062992,0.0,-0.007874015748031496
4.655510306358337,0.007874015748031496,-0.031496062992125984,-0.015748031496062992,-0.023622047244094488,0.0,0.0,-0.015748031496062992,-0.015748031496062992
4.65579080581665,-0.007874015748031496,-0.015748031496062992,-0.015748031496062992,0.007874015748031496,0.007874015748031496,-0.007874015748031496,-0.015748031496062992,-0.015748031496062992
4.655965328216553,-0.007874015748031496,-0.023622047244094488,0.0,-0.015748031496062992,-0.007874015748031496,0.0,-0.007874015748031496,-0.007874015748031496
4.656139850616455,0.0,-0.015748031496062992,-0.007874015748031496,-0.015748031496062992,0.0,-0.007874015748031496,-0.015748031496062992,0.007874015748031496
4.656439781188965,-0.007874015748031496,0.0,-0.007874015748031496,-0.015748031496062992,-0.015748031496062992,0.0,0.0,-0.007874015748031496
4.656739711761475,0.007874015748031496,0.0,-0.007874015748031496,-0.007874015748031496,-0.015748031496062992,-0.015748031496062992,-0.015748031496062992,0.0
4.656878709793091,-0.007874015748031496,-0.023622047244094488,-0.015748031496062992,0.0,0.0,0.0,-0.015748031496062992,-0.015748031496062992
4.657017707824707,-0.015748031496062992,-0.015748031496062992,-0.015748031496062992,-0.007874015748031496,-0.007874015748031496,0.0,-0.015748031496062992,-0.007874015748031496
4.6572712659835815,-0.007874015748031496,0.0,0.015748031496062992,0.0,0.007874015748031496,-0.007874015748031496,-0.015748031496062992,-0.007874015748031496
4.657524824142456,-0.007874015748031496,-0.007874015748031496,0.0,-0.023622047244094488,-0.015748031496062992,0.0,-0.007874015748031496,0.0
4.657636284828186,-0.023622047244094488,-0.007874015748031496,-0.015748031496062992,-0.015748031496062992,-0.007874015748031496,0.0,-0.007874015748031496,-0.007874015748031496
4.657747745513916,0.0,0.0,-0.007874015748031496,0.0,-0.015748031496062992,-0.015748031496062992,0.007874015748031496,0.007874015748031496
4.658090710639954,-0.015748031496062992,-0.007874015748031496,-0.015748031496062992,0.0,-0.015748031496062992,-0.015748031496062992,0.007874015748031496,-0.007874015748031496
4.658433675765991,-0.023622047244094488,0.023622047244094488,0.031496062992125984,0.0,-0.007874015748031496,0.0,-0.007874015748031496,0.0
4.658531665802002,-0.007874015748031496,-0.047244094488188976,-0.023622047244094488,-0.007874015748031496,-0.023622047244094488,-0.007874015748031496,-0.007874015748031496,-0.007874015748031496
4.658629655838013,-0.015748031496062992,-0.047244094488188976,-0.023622047244094488,-0.015748031496062992,-0.007874015748031496,-0.007874015748031496,-0.007874015748031496,-0.015748031496062992
4.658992767333984,-0.007874015748031496,-0.015748031496062992,-0.007874015748031496,-0.007874015748031496,-0.015748031496062992,-0.007874015748031496,-0.007874015748031496,-0.007874015748031496
4.659355878829956,-0.007874015748031496,0.0,0.0,-0.007874015748031496,-0.007874015748031496,-0.015748031496062992,-0.007874015748031496,-0.015748031496062992
4.659518718719482,0.0,0.0,0.0,-0.007874015748031496,-0.015748031496062992,-0.007874015748031496,-0.007874015748031496,-0.015748031496062992
4.659681558609009,0.0,-0.007874015748031496,-0.023622047244094488,0.0,-0.007874015748031496,-0.015748031496062992,0.0,0.0
4.660038232803345,0.0,-0.015748031496062992,-0.023622047244094488,0.0,-0.007874015748031496,-0.007874015748031496,-0.007874015748031496,-0.007874015748031496
4.660394906997681,-0.007874015748031496,-0.015748031496062992,-0.007874015748031496,-0.015748031496062992,-0.007874015748031496,-0.007874015748031496,-0.015748031496062992,0.0
4.6605764627456665,0.007874015748031496,-0.023622047244094488,-0.007874015748031496,0.0,-0.007874015748031496,-0.007874015748031496,-0.015748031496062992,-0.015748031496062992
4.660758018493652,0.0,-0.015748031496062992,0.0,-0.007874015748031496,-0.015748031496062992,-0.007874015748031496,-0.007874015748031496,0.0
4.661037921905518,-0.007874015748031496,0.0,-0.015748031496062992,-0.007874015748031496,0.0,0.007874015748031496,0.007874015748031496,-0.007874015748031496
4.661317825317383,-0.015748031496062992,-0.015748031496062992,-0.015748031496062992,0.007874015748031496,0.0,-0.015748031496062992,0.0,0.007874015748031496
4.6614203453063965,0.0,0.007874015748031496,0.007874015748031496,-0.007874015748031496,-0.015748031496062992,-0.007874015748031496,0.0,0.0
4.66152286529541,-0.007874015748031496,-0.007874015748031496,-0.015748031496062992,-0.007874015748031496,0.0,-0.007874015748031496,-0.023622047244094488,-0.007874015748031496
4.661760330200195,-0.007874015748031496,-0.015748031496062992,0.0,-0.007874015748031496,0.0,-0.007874015748031496,-0.007874015748031496,-0.007874015748031496
4.6619977951049805,0.007874015748031496,0.007874015748031496,0.007874015748031496,-0.007874015748031496,-0.007874015748031496,-0.007874015748031496,-0.007874015748031496,-0.007874015748031496
4.662104249000549,-0.007874015748031496,-0.007874015748031496,0.0,0.0,0.0,-0.007874015748031496,-0.007874015748031496,0.007874015748031496
4.662210702896118,0.0,0.0,-0.007874015748031496,0.0,0.0,0.0,0.0,-0.023622047244094488
4.66252076625824,-0.015748031496062992,-0.023622047244094488,0.007874015748031496,0.007874015748031496,-0.015748031496062992,-0.007874015748031496,-0.007874015748031496,-0.007874015748031496
4.662830829620361,0.0,-0.015748031496062992,-0.023622047244094488,-0.007874015748031496,-0.007874015748031496,-0.015748031496062992,-0.007874015748031496,-0.007874015748031496
4.662967920303345,-0.015748031496062992,0.0,0.0,-0.015748031496062992,0.015748031496062992,-0.015748031496062992,-0.023622047244094488,-0.015748031496062992
4.663105010986328,0.0,0.015748031496062992,-0.007874015748031496,-0.015748031496062992,-0.015748031496062992,-0.007874015748031496,-0.007874015748031496,-0.015748031496062992
4.663383841514587,0.0,-0.015748031496062992,-0.007874015748031496,-0.015748031496062992,0.0,-0.007874015748031496,-0.015748031496062992,-0.015748031496062992
4.663662672042847,-0.007874015748031496,0.015748031496062992,0.007874015748031496,0.0,0.007874015748031496,-0.007874015748031496,0.0,-0.015748031496062992
4.663776278495789,-0.03937007874015748,-0.023622047244094488,-0.023622047244094488,-0.007874015748031496,-0.015748031496062992,-0.023622047244094488,-0.007874015748031496,-0.023622047244094488
4.6638898849487305,-0.015748031496062992,0.023622047244094488,0.023622047244094488,0.0,0.0,0.007874015748031496,-0.007874015748031496,0.007874015748031496
4.664107799530029,-0.007874015748031496,-0.007874015748031496,-0.007874015748031496,-0.007874015748031496,0.0,-0.015748031496062992,-0.007874015748031496,-0.007874015748031496
4.664325714111328,0.007874015748031496,0.015748031496062992,0.007874015748031496,0.0,-0.015748031496062992,0.015748031496062992,0.0,-0.007874015748031496
4.664431691169739,0.0,-0.007874015748031496,0.0,-0.023622047244094488,-0.023622047244094488,0.007874015748031496,0.007874015748031496,-0.007874015748031496
4.664537668228149,-0.007874015748031496,0.0,-0.007874015748031496,-0.015748031496062992,0.0,-0.007874015748031496,-0.007874015748031496,-0.031496062992125984
4.664886236190796,-0.007874015748031496,0.0,0.0,-0.015748031496062992,-0.015748031496062992,-0.023622047244094488,-0.015748031496062992,0.007874015748031496
4.665234804153442,-0.015748031496062992,-0.03937007874015748,-0.015748031496062992,0.0,0.0,-0.007874015748031496,-0.007874015748031496,0.0
4.6653478145599365,0.0,-0.007874015748031496,-0.015748031496062992,0.0,-0.007874015748031496,-0.007874015748031496,-0.007874015748031496,-0.007874015748031496
4.665460824966431,0.007874015748031496,-0.015748031496062992,-0.007874015748031496,-0.007874015748031496,0.0,-0.015748031496062992,0.0,-0.007874015748031496
4.665679335594177,-0.015748031496062992,-0.007874015748031496,-0.007874015748031496,-0.007874015748031496,0.0,0.007874015748031496,-0.007874015748031496,0.0
4.665897846221924,-0.007874015748031496,-0.015748031496062992,-0.015748031496062992,-0.023622047244094488,-0.007874015748031496,-0.007874015748031496,-0.007874015748031496,-0.015748031496062992
4.666067361831665,-0.007874015748031496,-0.007874015748031496,-0.015748031496062992,0.007874015748031496,0.0,-0.015748031496062992,-0.007874015748031496,0.007874015748031496
4.666236877441406,-0.023622047244094488,-0.023622047244094488,-0.007874015748031496,0.0,-0.007874015748031496,-0.023622047244094488,-0.007874015748031496,0.0
4.666528344154358,-0.007874015748031496,0.0,0.0,0.0,0.0,-0.007874015748031496,-0.015748031496062992,-0.015748031496062992
4.66681981086731,-0.023622047244094488,-0.031496062992125984,-0.03937007874015748,-0.015748031496062992,-0.007874015748031496,-0.007874015748031496,-0.007874015748031496,0.007874015748031496
4.6669464111328125,-0.007874015748031496,-0.007874015748031496,0.0,0.0,-0.007874015748031496,0.0,0.007874015748031496,-0.023622047244094488
4.667073011398315,0.0,-0.015748031496062992,0.0,0.0,-0.007874015748031496,0.0,-0.007874015748031496,-0.007874015748031496
4.667405366897583,-0.015748031496062992,-0.023622047244094488,-0.023622047244094488,0.0,-0.015748031496062992,-0.007874015748031496,-0.007874015748031496,-0.007874015748031496
4.667737722396851,0.007874015748031496,0.0,0.0,0.0,0.0,0.0,-0.007874015748031496,-0.007874015748031496
4.667888760566711,0.0,0.007874015748031496,0.007874015748031496,0.0,0.0,-0.007874015748031496,0.0,0.0
4.668039798736572,-0.023622047244094488,-0.031496062992125984,-0.007874015748031496,-0.007874015748031496,-0.007874015748031496,-0.007874015748031496,-0.007874015748031496,-0.007874015748031496
4.668262243270874,0.007874015748031496,-0.007874015748031496,-0.007874015748031496,-0.015748031496062992,-0.007874015748031496,-0.007874015748031496,-0.007874015748031496,-0.023622047244094488
4.668484687805176,-0.007874015748031496,0.0,-0.007874015748031496,0.007874015748031496,-0.007874015748031496,-0.015748031496062992,0.0,0.0
4.668664336204529,0.007874015748031496,0.023622047244094488,-0.015748031496062992,-0.007874015748031496,-0.015748031496062992,-0.007874015748031496,-0.007874015748031496,-0.007874015748031496
4.668843984603882,-0.015748031496062992,-0.007874015748031496,-0.007874015748031496,-0.015748031496062992,-0.007874015748031496,-0.007874015748031496,-0.023622047244094488,-0.023622047244094488
4.669079899787903,0.0,-0.023622047244094488,-0.015748031496062992,-0.015748031496062992,0.0,0.0,-0.007874015748031496,-0.007874015748031496
4.669315814971924,-0.007874015748031496,-0.023622047244094488,-0.031496062992125984,-0.023622047244094488,-0.015748031496062992,-0.007874015748031496,0.0,-0.015748031496062992
4.669412851333618,0.007874015748031496,0.0,-0.015748031496062992,0.0,-0.007874015748031496,0.0,0.0,-0.015748031496062992
4.6695098876953125,-0.023622047244094488,-0.015748031496062992,-0.023622047244094488,-0.007874015748031496,-0.007874015748031496,-0.015748031496062992,0.007874015748031496,0.0
4.669767379760742,0.0,0.023622047244094488,0.023622047244094488,-0.007874015748031496,0.0,-0.007874015748031496,0.0,-0.015748031496062992
4.670024871826172,0.0,-0.031496062992125984,-0.015748031496062992,-0.007874015748031496,-0.015748031496062992,-0.015748031496062992,-0.015748031496062992,-0.015748031496062992
4.670132875442505,-0.015748031496062992,-0.015748031496062992,0.007874015748031496,-0.007874015748031496,-0.007874015748031496,-0.015748031496062992,-0.015748031496062992,0.0
4.670240879058838,-0.023622047244094488,0.0,-0.023622047244094488,-0.007874015748031496,-0.023622047244094488,-0.007874015748031496,-0.023622047244094488,0.0
4.670480847358704,0.0,0.03937007874015748,-0.007874015748031496,0.007874015748031496,-0.015748031496062992,0.0,0.007874015748031496,0.0
4.670720815658569,-0.007874015748031496,0.015748031496062992,0.023622047244094488,0.0,0.0,0.0,-0.007874015748031496,0.0
4.670880913734436,-0.015748031496062992,-0.023622047244094488,-0.015748031496062992,-0.007874015748031496,-0.015748031496062992,-0.007874015748031496,0.0,-0.007874015748031496
4.671041011810303,0.007874015748031496,0.015748031496062992,0.007874015748031496,-0.007874015748031496,0.0,-0.015748031496062992,-0.007874015748031496,0.0
4.671481370925903,-0.007874015748031496,-0.023622047244094488,-0.031496062992125984,-0.015748031496062992,0.0,-0.015748031496062992,-0.007874015748031496,-0.007874015748031496
4.671921730041504,-0.007874015748031496,-0.015748031496062992,-0.023622047244094488,-0.023622047244094488,-0.007874015748031496,0.0,-0.007874015748031496,-0.007874015748031496
4.672121286392212,-0.015748031496062992,0.0,0.0,-0.015748031496062992,-0.007874015748031496,0.0,0.0,0.0
4.67232084274292,-0.007874015748031496,0.0,-0.015748031496062992,-0.023622047244094488,-0.015748031496062992,-0.007874015748031496,0.0,-0.007874015748031496
4.672724366188049,-0.015748031496062992,-0.023622047244094488,-0.007874015748031496,-0.015748031496062992,-0.015748031496062992,-0.023622047244094488,-0.007874015748031496,0.0
4.673127889633179,0.0,0.007874015748031496,-0.007874015748031496,0.0,0.0,-0.007874015748031496,-0.007874015748031496,-0.015748031496062992
4.67328941822052,-0.015748031496062992,0.0,0.015748031496062992,-0.007874015748031496,0.0,-0.015748031496062992,-0.007874015748031496,-0.015748031496062992
4.673450946807861,-0.015748031496062992,0.0,-0.007874015748031496,0.007874015748031496,-0.007874015748031496,-0.007874015748031496,0.007874015748031496,0.0
4.673781394958496,-0.007874015748031496,-0.015748031496062992,-0.007874015748031496,-0.007874015748031496,-0.015748031496062992,-0.007874015748031496,0.0,-0.015748031496062992
4.674111843109131,-0.015748031496062992,-0.023622047244094488,-0.023622047244094488,-0.015748031496062992,-0.015748031496062992,-0.007874015748031496,-0.015748031496062992,0.0
4.674256324768066,0.007874015748031496,0.007874015748031496,0.0,-0.015748031496062992,0.0,0.0,-0.015748031496062992,0.0
4.674400806427002,0.0,0.0,-0.007874015748031496,-0.007874015748031496,-0.007874015748031496,-0.007874015748031496,-0.023622047244094488,-0.007874015748031496
4.674713850021362,0.0,0.007874015748031496,0.0,0.007874015748031496,0.0,-0.015748031496062992,-0.007874015748031496,0.0
4.675026893615723,-0.015748031496062992,0.015748031496062992,0.0,-0.015748031496062992,0.0,-0.007874015748031496,-0.007874015748031496,0.0
4.675170302391052,-0.015748031496062992,-0.007874015748031496,-0.015748031496062992,-0.007874015748031496,-0.015748031496062992,-0.007874015748031496,-0.015748031496062992,0.0
4.675313711166382,-0.023622047244094488,-0.007874015748031496,-0.023622047244094488,-0.023622047244094488,0.007874015748031496,-0.007874015748031496,-0.015748031496062992,-0.023622047244094488
4.675633192062378,-0.007874015748031496,-0.031496062992125984,-0.007874015748031496,-0.015748031496062992,-0.007874015748031496,0.0,0.0,-0.015748031496062992
4.675952672958374,-0.007874015748031496,-0.007874015748031496,0.007874015748031496,0.0,-0.007874015748031496,-0.015748031496062992,0.0,0.0
4.67609977722168,-0.015748031496062992,-0.007874015748031496,-0.015748031496062992,-0.007874015748031496,0.0,-0.007874015748031496,-0.007874015748031496,0.0
4.676246881484985,0.007874015748031496,-0.007874015748031496,-0.007874015748031496,0.0,-0.007874015748031496,0.0,-0.015748031496062992,-0.015748031496062992
4.676515817642212,-0.007874015748031496,0.007874015748031496,0.007874015748031496,0.0,-0.007874015748031496,-0.015748031496062992,-0.023622047244094488,0.007874015748031496
4.6767847537994385,-0.007874015748031496,0.007874015748031496,0.007874015748031496,-0.007874015748031496,0.0,-0.007874015748031496,0.0,-0.023622047244094488
4.6768763065338135,0.05511811023622047,0.09448818897637795,0.015748031496062992,-0.015748031496062992,-0.015748031496062992,0.007874015748031496,-0.007874015748031496,0.007874015748031496
4.6769678592681885,-0.031496062992125984,-0.33858267716535434,-0.11023622047244094,-0.015748031496062992,-0.023622047244094488,-0.023622047244094488,-0.023622047244094488,-0.023622047244094488
4.6772133111953735,-0.031496062992125984,-0.03937007874015748,-0.031496062992125984,-0.015748031496062992,-0.007874015748031496,0.0,0.0,0.0
4.677458763122559,-0.015748031496062992,0.023622047244094488,0.0,0.0,-0.007874015748031496,-0.015748031496062992,-0.007874015748031496,0.0
4.6775583028793335,-0.023622047244094488,0.0,-0.015748031496062992,-0.007874015748031496,0.0,0.0,-0.007874015748031496,0.0
4.677657842636108,-0.015748031496062992,0.007874015748031496,0.0,-0.023622047244094488,-0.007874015748031496,0.0,-0.007874015748031496,0.0
4.67793083190918,0.007874015748031496,-0.07874015748031496,-0.007874015748031496,-0.015748031496062992,-0.015748031496062992,-0.015748031496062992,-0.015748031496062992,-0.007874015748031496
4.678203821182251,0.031496062992125984,-0.10236220472440945,-0.10236220472440945,-0.023622047244094488,-0.015748031496062992,-0.007874015748031496,-0.007874015748031496,-0.007874015748031496
4.678305268287659,-0.11811023622047244,-0.2755905511811024,0.023622047244094488,0.023622047244094488,-0.007874015748031496,-0.007874015748031496,-0.007874015748031496,-0.031496062992125984
4.678406715393066,0.03937007874015748,0.11811023622047244,0.031496062992125984,0.007874015748031496,-0.023622047244094488,-0.015748031496062992,0.007874015748031496,0.007874015748031496
4.6786158084869385,-0.03937007874015748,0.047244094488188976,0.023622047244094488,-0.015748031496062992,-0.007874015748031496,-0.007874015748031496,-0.015748031496062992,-0.007874015748031496
4.6788249015808105,0.015748031496062992,0.11811023622047244,0.05511811023622047,0.015748031496062992,-0.007874015748031496,-0.007874015748031496,-0.007874015748031496,-0.007874015748031496
4.678919792175293,0.007874015748031496,-0.03937007874015748,-0.047244094488188976,-0.015748031496062992,0.0,-0.007874015748031496,-0.015748031496062992,-0.015748031496062992
4.679014682769775,0.007874015748031496,0.031496062992125984,-0.031496062992125984,-0.023622047244094488,0.0,-0.007874015748031496,0.015748031496062992,0.0
4.6793166399002075,-0.07874015748031496,-0.14173228346456693,-0.12598425196850394,-0.023622047244094488,-0.023622047244094488,-0.023622047244094488,-0.031496062992125984,-0.047244094488188976
4.67961859703064,0.031496062992125984,0.14173228346456693,0.05511811023622047,0.0,0.0,0.0,0.0,0.0
4.6797672510147095,0.007874015748031496,0.07086614173228346,0.0,0.015748031496062992,-0.007874015748031496,-0.015748031496062992,0.007874015748031496,-0.007874015748031496
4.679915904998779,-0.007874015748031496,0.07086614173228346,0.031496062992125984,0.007874015748031496,0.007874015748031496,0.0,0.0,0.0
4.680113315582275,0.007874015748031496,0.03937007874015748,-0.023622047244094488,-0.031496062992125984,-0.015748031496062992,-0.007874015748031496,-0.007874015748031496,-0.007874015748031496
4.6803107261657715,-0.023622047244094488,0.03937007874015748,-0.05511811023622047,-0.031496062992125984,-0.023622047244094488,-0.023622047244094488,-0.015748031496062992,-0.023622047244094488
4.680399298667908,-0.031496062992125984,0.031496062992125984,0.031496062992125984,0.0,-0.007874015748031496,-0.007874015748031496,-0.007874015748031496,-0.015748031496062992
4.680487871170044,-0.015748031496062992,-0.031496062992125984,-0.007874015748031496,0.0,-0.015748031496062992,-0.007874015748031496,-0.015748031496062992,-0.007874015748031496
4.680744886398315,0.047244094488188976,0.1968503937007874,0.08661417322834646,0.015748031496062992,-0.007874015748031496,0.0,0.0,0.015748031496062992
4.681001901626587,0.06299212598425197,0.11023622047244094,0.0,-0.015748031496062992,-0.007874015748031496,0.007874015748031496,-0.007874015748031496,0.023622047244094488
4.681114912033081,0.015748031496062992,0.13385826771653545,0.0,0.0,0.007874015748031496,0.0,0.015748031496062992,0.023622047244094488
4.681227922439575,-0.047244094488188976,0.0,0.06299212598425197,-0.015748031496062992,-0.007874015748031496,-0.023622047244094488,-0.007874015748031496,-0.007874015748031496
4.681457757949829,-0.007874015748031496,0.0,-0.007874015748031496,0.0,0.015748031496062992,0.0,0.0,0.0
4.681687593460083,-0.031496062992125984,-0.047244094488188976,0.031496062992125984,0.007874015748031496,0.007874015748031496,-0.023622047244094488,-0.007874015748031496,-0.023622047244094488
4.681907653808594,0.023622047244094488,0.015748031496062992,-0.023622047244094488,-0.023622047244094488,-0.015748031496062992,-0.015748031496062992,-0.023622047244094488,-0.023622047244094488
4.6821277141571045,-0.007874015748031496,-0.07086614173228346,-0.11811023622047244,-0.031496062992125984,-0.015748031496062992,0.0,0.0,-0.007874015748031496
4.682472348213196,0.031496062992125984,0.16535433070866143,0.0,0.0,-0.023622047244094488,0.007874015748031496,0.0,0.007874015748031496
4.682816982269287,-0.03937007874015748,-0.10236220472440945,-0.047244094488188976,-0.007874015748031496,-0.007874015748031496,-0.007874015748031496,0.0,-0.007874015748031496
4.683045387268066,-0.023622047244094488,-0.09448818897637795,-0.015748031496062992,-0.007874015748031496,-0.007874015748031496,-0.015748031496062992,-0.007874015748031496,0.0
4.683273792266846,-0.031496062992125984,-0.2204724409448819,0.0,0.007874015748031496,0.0,-0.015748031496062992,-0.015748031496062992,-0.023622047244094488
4.683672308921814,-0.007874015748031496,0.031496062992125984,0.015748031496062992,0.007874015748031496,-0.007874015748031496,-0.007874015748031496,-0.007874015748031496,0.0
4.684070825576782,-0.03937007874015748,-0.11811023622047244,0.0,0.0,-0.023622047244094488,-0.015748031496062992,-0.023622047244094488,0.0
4.684196710586548,0.0,0.023622047244094488,0.0,0.015748031496062992,-0.007874015748031496,-0.023622047244094488,-0.015748031496062992,-0.007874015748031496
4.6843225955963135,0.007874015748031496,0.015748031496062992,0.023622047244094488,-0.023622047244094488,0.0,-0.007874015748031496,-0.015748031496062992,-0.015748031496062992
4.684601664543152,-0.015748031496062992,-0.047244094488188976,-0.13385826771653545,-0.06299212598425197,-0.015748031496062992,-0.015748031496062992,0.007874015748031496,-0.007874015748031496
4.68488073348999,0.023622047244094488,0.03937007874015748,0.023622047244094488,0.0,0.0,0.007874015748031496,0.015748031496062992,0.0
4.684973835945129,-0.05511811023622047,-0.3937007874015748,-0.1889763779527559,-0.023622047244094488,-0.023622047244094488,-0.023622047244094488,-0.023622047244094488,-0.023622047244094488
4.6850669384002686,0.015748031496062992,0.23622047244094488,0.09448818897637795,0.03937007874015748,0.023622047244094488,0.015748031496062992,0.007874015748031496,0.007874015748031496
4.685411334037781,-0.031496062992125984,-0.12598425196850394,-0.015748031496062992,-0.015748031496062992,-0.015748031496062992,0.0,-0.007874015748031496,0.0
4.685755729675293,0.015748031496062992,0.031496062992125984,0.031496062992125984,0.007874015748031496,0.0,-0.007874015748031496,0.015748031496062992,0.0
4.68588924407959,-0.06299212598425197,-0.6141732283464567,-0.16535433070866143,-0.03937007874015748,-0.015748031496062992,-0.023622047244094488,-0.031496062992125984,-0.031496062992125984
4.686022758483887,0.0,0.30708661417322836,0.06299212598425197,0.023622047244094488,-0.007874015748031496,0.007874015748031496,0.007874015748031496,0.007874015748031496
4.686348795890808,0.015748031496062992,0.07086614173228346,0.047244094488188976,0.0,0.0,-0.007874015748031496,0.0,0.0
4.6866748332977295,-0.047244094488188976,-0.09448818897637795,-0.047244094488188976,-0.023622047244094488,-0.023622047244094488,0.0,-0.007874015748031496,-0.015748031496062992
4.686831712722778,0.06299212598425197,0.2204724409448819,0.07086614173228346,-0.007874015748031496,0.0,0.0,0.015748031496062992,0.015748031496062992
4.686988592147827,-0.007874015748031496,-0.2047244094488189,-0.05511811023622047,0.007874015748031496,0.0,-0.007874015748031496,-0.015748031496062992,-0.007874015748031496
4.687255144119263,0.0,0.023622047244094488,-0.10236220472440945,-0.023622047244094488,0.0,0.007874015748031496,-0.007874015748031496,-0.015748031496062992
4.687521696090698,-0.007874015748031496,0.015748031496062992,-0.031496062992125984,-0.023622047244094488,0.0,-0.023622047244094488,-0.031496062992125984,-0.015748031496062992
4.687619209289551,0.007874015748031496,0.2125984251968504,0.03937007874015748,-0.015748031496062992,-0.007874015748031496,0.0,0.007874015748031496,0.0
4.687716722488403,0.023622047244094488,-0.16535433070866143,-0.05511811023622047,-0.031496062992125984,-0.023622047244094488,-0.015748031496062992,0.0,-0.007874015748031496
4.68796169757843,-0.031496062992125984,-0.023622047244094488,0.07086614173228346,0.031496062992125984,0.0,-0.007874015748031496,0.0,-0.023622047244094488
4.688206672668457,-0.023622047244094488,-0.11811023622047244,-0.05511811023622047,-0.007874015748031496,0.0,-0.007874015748031496,-0.023622047244094488,-0.015748031496062992
4.688299298286438,0.015748031496062992,0.07874015748031496,0.023622047244094488,0.015748031496062992,0.015748031496062992,0.007874015748031496,0.007874015748031496,0.007874015748031496
4.688391923904419,0.0,-0.03937007874015748,-0.047244094488188976,-0.07086614173228346,-0.023622047244094488,-0.031496062992125984,-0.031496062992125984,-0.015748031496062992
4.688684344291687,-0.031496062992125984,-0.14960629921259844,0.06299212598425197,0.015748031496062992,0.0,-0.015748031496062992,-0.015748031496062992,-0.023622047244094488
4.688976764678955,-0.023622047244094488,0.0,0.047244094488188976,0.007874015748031496,0.0,-0.007874015748031496,0.0,-0.007874015748031496
4.689079761505127,-0.031496062992125984,0.08661417322834646,-0.05511811023622047,-0.023622047244094488,-0.007874015748031496,-0.007874015748031496,-0.007874015748031496,-0.007874015748031496
4.689182758331299,-0.015748031496062992,0.05511811023622047,-0.015748031496062992,0.0,-0.007874015748031496,0.0,-0.007874015748031496,-0.015748031496062992
4.689425706863403,0.0,0.0,-0.023622047244094488,-0.007874015748031496,0.007874015748031496,-0.007874015748031496,-0.023622047244094488,-0.015748031496062992
4.689668655395508,-0.023622047244094488,0.023622047244094488,0.06299212598425197,-0.007874015748031496,-0.007874015748031496,0.0,-0.015748031496062992,-0.015748031496062992
4.689760208129883,-0.015748031496062992,-0.03937007874015748,0.0,-0.015748031496062992,-0.023622047244094488,-0.007874015748031496,-0.007874015748031496,-0.015748031496062992
4.689851760864258,-0.007874015748031496,0.3858267716535433,0.11811023622047244,0.031496062992125984,0.007874015748031496,-0.007874015748031496,0.007874015748031496,0.023622047244094488
4.690086841583252,0.0,0.0,0.015748031496062992,-0.007874015748031496,0.0,-0.007874015748031496,-0.015748031496062992,-0.007874015748031496
4.690321922302246,-0.015748031496062992,-0.05511811023622047,-0.06299212598425197,0.0,0.0,0.007874015748031496,-0.007874015748031496,-0.023622047244094488
4.690467953681946,-0.015748031496062992,0.03937007874015748,0.015748031496062992,-0.015748031496062992,0.0,-0.015748031496062992,-0.023622047244094488,-0.015748031496062992
4.6906139850616455,0.0,-0.08661417322834646,-0.07874015748031496,-0.023622047244094488,-0.007874015748031496,-0.007874015748031496,-0.007874015748031496,-0.023622047244094488
4.690861821174622,0.023622047244094488,0.007874015748031496,-0.03937007874015748,-0.023622047244094488,-0.015748031496062992,-0.007874015748031496,-0.015748031496062992,-0.015748031496062992
4.691109657287598,0.031496062992125984,0.0,0.05511811023622047,0.023622047244094488,-0.007874015748031496,-0.015748031496062992,-0.007874015748031496,0.023622047244094488
4.691273212432861,-0.007874015748031496,0.3700787401574803,0.11811023622047244,0.023622047244094488,0.007874015748031496,0.015748031496062992,0.023622047244094488,0.023622047244094488
4.691436767578125,-0.031496062992125984,-0.05511811023622047,-0.007874015748031496,-0.06299212598425197,-0.031496062992125984,-0.007874015748031496,-0.015748031496062992,-0.007874015748031496
4.691672205924988,-0.007874015748031496,0.031496062992125984,-0.007874015748031496,0.007874015748031496,-0.007874015748031496,-0.007874015748031496,-0.023622047244094488,0.0
4.691907644271851,-0.023622047244094488,-0.14173228346456693,-0.07874015748031496,-0.031496062992125984,-0.023622047244094488,0.0,-0.031496062992125984,-0.031496062992125984
4.692089200019836,0.05511811023622047,-0.047244094488188976,0.015748031496062992,0.0,0.015748031496062992,0.007874015748031496,0.007874015748031496,0.0
4.692270755767822,0.015748031496062992,-0.1732283464566929,-0.03937007874015748,0.007874015748031496,-0.023622047244094488,-0.031496062992125984,-0.007874015748031496,-0.007874015748031496
4.692688822746277,-0.031496062992125984,0.031496062992125984,0.015748031496062992,0.0,0.0,-0.007874015748031496,0.0,0.0
4.6931068897247314,0.007874015748031496,0.047244094488188976,-0.047244094488188976,-0.03937007874015748,-0.007874015748031496,-0.007874015748031496,0.015748031496062992,0.0
4.693277835845947,-0.015748031496062992,-0.031496062992125984,0.07086614173228346,0.05511811023622047,0.007874015748031496,0.007874015748031496,0.0,0.0
4.693448781967163,-0.007874015748031496,0.007874015748031496,-0.015748031496062992,-0.031496062992125984,-0.007874015748031496,-0.007874015748031496,-0.007874015748031496,-0.015748031496062992
4.693668842315674,-0.03937007874015748,-0.4015748031496063,-0.18110236220472442,-0.07874015748031496,-0.03937007874015748,-0.015748031496062992,-0.023622047244094488,-0.047244094488188976
4.693888902664185,-0.031496062992125984,0.08661417322834646,0.07086614173228346,0.031496062992125984,-0.007874015748031496,0.0,0.0,0.007874015748031496
4.694025874137878,0.007874015748031496,0.05511811023622047,-0.05511811023622047,-0.031496062992125984,-0.015748031496062992,-0.007874015748031496,-0.007874015748031496,0.007874015748031496
4.694162845611572,-0.007874015748031496,-0.031496062992125984,0.05511811023622047,0.03937007874015748,0.015748031496062992,-0.015748031496062992,0.0,0.007874015748031496
4.69436776638031,0.007874015748031496,-0.015748031496062992,0.007874015748031496,0.0,0.0,-0.007874015748031496,-0.015748031496062992,0.0
4.694572687149048,-0.05511811023622047,0.047244094488188976,0.007874015748031496,0.0,0.0,0.0,-0.007874015748031496,-0.007874015748031496
4.694712162017822,-0.023622047244094488,-0.031496062992125984,0.031496062992125984,-0.031496062992125984,-0.015748031496062992,-0.023622047244094488,-0.015748031496062992,-0.023622047244094488
4.694851636886597,0.0,0.031496062992125984,-0.015748031496062992,0.007874015748031496,-0.007874015748031496,-0.007874015748031496,-0.023622047244094488,-0.007874015748031496
4.695207834243774,-0.007874015748031496,0.047244094488188976,0.015748031496062992,0.007874015748031496,0.007874015748031496,-0.007874015748031496,-0.007874015748031496,-0.007874015748031496
4.695564031600952,0.023622047244094488,0.031496062992125984,-0.015748031496062992,-0.015748031496062992,-0.015748031496062992,-0.007874015748031496,0.0,0.007874015748031496
4.6957314014434814,0.0,0.007874015748031496,-0.06299212598425197,-0.015748031496062992,-0.023622047244094488,-0.015748031496062992,-0.015748031496062992,-0.015748031496062992
4.695898771286011,-0.015748031496062992,-0.023622047244094488,-0.07086614173228346,-0.007874015748031496,0.007874015748031496,0.007874015748031496,-0.007874015748031496,0.0
4.69616973400116,0.031496062992125984,0.08661417322834646,0.06299212598425197,0.0,0.007874015748031496,0.0,0.0,0.0
4.696440696716309,0.015748031496062992,-0.4251968503937008,-0.07086614173228346,-0.05511811023622047,-0.015748031496062992,-0.015748031496062992,-0.023622047244094488,-0.031496062992125984
4.696577787399292,-0.023622047244094488,-0.023622047244094488,-0.03937007874015748,-0.031496062992125984,-0.007874015748031496,-0.023622047244094488,-0.023622047244094488,-0.015748031496062992
4.696714878082275,0.047244094488188976,0.25196850393700787,0.031496062992125984,-0.007874015748031496,-0.007874015748031496,0.007874015748031496,0.015748031496062992,0.015748031496062992
4.697030782699585,-0.007874015748031496,0.25196850393700787,0.14173228346456693,0.047244094488188976,0.0,0.015748031496062992,0.015748031496062992,0.023622047244094488
4.6973466873168945,-0.007874015748031496,0.015748031496062992,-0.14960629921259844,-0.031496062992125984,0.0,-0.007874015748031496,-0.007874015748031496,-0.015748031496062992
4.697487711906433,-0.015748031496062992,0.0,-0.031496062992125984,-0.007874015748031496,0.0,-0.007874015748031496,-0.007874015748031496,-0.015748031496062992
4.697628736495972,-0.015748031496062992,-0.07874015748031496,0.0,-0.023622047244094488,-0.023622047244094488,-0.023622047244094488,-0.023622047244094488,-0.023622047244094488
4.697941184043884,-0.015748031496062992,-0.14960629921259844,0.007874015748031496,0.0,-0.007874015748031496,-0.015748031496062992,-0.007874015748031496,0.0
4.698253631591797,0.023622047244094488,0.07874015748031496,0.03937007874015748,-0.007874015748031496,-0.015748031496062992,-0.007874015748031496,0.007874015748031496,0.023622047244094488
4.69841730594635,-0.023622047244094488,-0.031496062992125984,-0.11023622047244094,-0.03937007874015748,0.0,0.007874015748031496,-0.007874015748031496,-0.023622047244094488
4.698580980300903,-0.03937007874015748,-0.047244094488188976,-0.023622047244094488,0.0,0.007874015748031496,-0.015748031496062992,-0.015748031496062992,-0.031496062992125984
4.698861360549927,-0.007874015748031496,0.015748031496062992,0.0,0.015748031496062992,-0.007874015748031496,-0.007874015748031496,-0.007874015748031496,-0.007874015748031496
4.69914174079895,-0.015748031496062992,0.015748031496062992,0.06299212598425197,0.05511811023622047,0.007874015748031496,-0.007874015748031496,-0.015748031496062992,-0.007874015748031496
4.699254274368286,0.0,-0.25984251968503935,-0.16535433070866143,-0.10236220472440945,-0.031496062992125984,-0.007874015748031496,-0.007874015748031496,-0.031496062992125984
4.699366807937622,-0.007874015748031496,0.007874015748031496,0.007874015748031496,-0.015748031496062992,-0.023622047244094488,-0.023622047244094488,0.0,0.007874015748031496
4.69967782497406,0.0,0.007874015748031496,0.0,0.0,-0.015748031496062992,-0.015748031496062992,0.015748031496062992,-0.007874015748031496
4.699988842010498,-0.06299212598425197,0.031496062992125984,-0.015748031496062992,0.0,0.015748031496062992,-0.007874015748031496,-0.007874015748031496,-0.023622047244094488
4.700133323669434,0.007874015748031496,0.07086614173228346,0.07874015748031496,0.023622047244094488,-0.007874015748031496,0.007874015748031496,-0.015748031496062992,0.023622047244094488
4.700277805328369,-0.03937007874015748,0.007874015748031496,-0.07086614173228346,-0.031496062992125984,-0.007874015748031496,-0.015748031496062992,-0.031496062992125984,0.0
4.700606346130371,0.03937007874015748,-0.11023622047244094,-0.10236220472440945,-0.047244094488188976,-0.031496062992125984,-0.015748031496062992,-0.007874015748031496,-0.015748031496062992
4.700934886932373,-0.07086614173228346,0.23622047244094488,0.12598425196850394,0.047244094488188976,0.015748031496062992,0.007874015748031496,0.0,0.0
4.701079368591309,-0.015748031496062992,0.031496062992125984,-0.015748031496062992,0.023622047244094488,0.0,-0.007874015748031496,-0.015748031496062992,-0.007874015748031496
4.701223850250244,0.0,-0.07086614173228346,0.07086614173228346,0.031496062992125984,0.007874015748031496,0.0,-0.007874015748031496,-0.007874015748031496
4.70153534412384,-0.007874015748031496,0.023622047244094488,-0.03937007874015748,-0.031496062992125984,0.0,-0.023622047244094488,-0.007874015748031496,0.007874015748031496
4.7018468379974365,0.007874015748031496,-0.15748031496062992,-0.09448818897637795,-0.05511811023622047,-0.03937007874015748,-0.015748031496062992,-0.007874015748031496,0.0
4.702022314071655,0.05511811023622047,0.2125984251968504,0.11023622047244094,0.007874015748031496,0.007874015748031496,-0.007874015748031496,-0.007874015748031496,0.015748031496062992
4.702197790145874,0.007874015748031496,0.007874015748031496,-0.1889763779527559,-0.03937007874015748,0.007874015748031496,0.015748031496062992,0.007874015748031496,0.023622047244094488
4.702552318572998,-0.03937007874015748,-0.11023622047244094,0.023622047244094488,-0.03937007874015748,-0.007874015748031496,-0.015748031496062992,-0.015748031496062992,-0.015748031496062992
4.702906847000122,0.015748031496062992,-0.05511811023622047,0.023622047244094488,-0.023622047244094488,-0.023622047244094488,-0.015748031496062992,-0.015748031496062992,0.0
4.703008770942688,-0.03937007874015748,-0.031496062992125984,0.0,0.023622047244094488,-0.007874015748031496,0.0,-0.007874015748031496,-0.031496062992125984
4.703110694885254,0.007874015748031496,-0.07874015748031496,0.06299212598425197,0.047244094488188976,0.015748031496062992,0.007874015748031496,-0.023622047244094488,-0.023622047244094488
4.703334212303162,-0.007874015748031496,0.015748031496062992,-0.031496062992125984,-0.05511811023622047,-0.023622047244094488,-0.007874015748031496,-0.007874015748031496,0.0
4.703557729721069,0.09448818897637795,0.30708661417322836,0.10236220472440945,0.0,-0.015748031496062992,0.0,0.0,0.007874015748031496
4.70366632938385,-0.031496062992125984,0.007874015748031496,-0.11023622047244094,-0.07086614173228346,-0.031496062992125984,-0.031496062992125984,0.0,0.007874015748031496
4.703774929046631,0.03937007874015748,-0.07086614173228346,0.1732283464566929,0.007874015748031496,-0.015748031496062992,0.0,0.015748031496062992,0.0
4.703986406326294,-0.047244094488188976,0.03937007874015748,-0.15748031496062992,0.031496062992125984,0.031496062992125984,0.0,-0.023622047244094488,-0.007874015748031496
4.704197883605957,-0.06299212598425197,-0.06299212598425197,0.11811023622047244,-0.023622047244094488,-0.007874015748031496,-0.015748031496062992,-0.007874015748031496,-0.007874015748031496
4.704291343688965,0.0,-0.11811023622047244,-0.08661417322834646,0.0,-0.015748031496062992,0.0,-0.015748031496062992,-0.023622047244094488
4.704384803771973,-0.007874015748031496,-0.1732283464566929,-0.1732283464566929,-0.11023622047244094,-0.047244094488188976,-0.023622047244094488,-0.007874015748031496,-0.015748031496062992
4.704631209373474,-0.07086614173228346,0.15748031496062992,0.11811023622047244,0.023622047244094488,-0.007874015748031496,-0.007874015748031496,-0.007874015748031496,-0.015748031496062992
4.704877614974976,-0.023622047244094488,0.007874015748031496,-0.015748031496062992,0.07086614173228346,0.015748031496062992,0.007874015748031496,0.007874015748031496,0.0
4.704976201057434,0.015748031496062992,-0.03937007874015748,0.015748031496062992,0.03937007874015748,0.007874015748031496,0.007874015748031496,0.0,-0.007874015748031496
4.705074787139893,-0.07086614173228346,-0.07874015748031496,0.06299212598425197,-0.031496062992125984,-0.023622047244094488,-0.023622047244094488,-0.007874015748031496,-0.031496062992125984
4.705283284187317,0.03937007874015748,-0.09448818897637795,-0.07086614173228346,-0.05511811023622047,-0.023622047244094488,-0.007874015748031496,-0.007874015748031496,0.007874015748031496
4.705491781234741,0.0,-0.09448818897637795,-0.12598425196850394,-0.047244094488188976,-0.007874015748031496,-0.023622047244094488,-0.015748031496062992,-0.07874015748031496
4.7055888175964355,-0.015748031496062992,0.08661417322834646,0.14960629921259844,0.023622047244094488,-0.007874015748031496,0.0,-0.015748031496062992,0.007874015748031496
4.70568585395813,0.007874015748031496,0.11811023622047244,0.015748031496062992,0.047244094488188976,0.007874015748031496,0.0,-0.023622047244094488,0.0
4.705914855003357,0.015748031496062992,0.015748031496062992,0.023622047244094488,0.03937007874015748,0.007874015748031496,-0.007874015748031496,-0.007874015748031496,0.0
4.706143856048584,-0.007874015748031496,-0.07874015748031496,-0.031496062992125984,-0.007874015748031496,-0.007874015748031496,-0.015748031496062992,0.0,0.0
4.706304430961609,-0.047244094488188976,-0.08661417322834646,-0.08661417322834646,-0.06299212598425197,-0.015748031496062992,0.0,-0.007874015748031496,-0.007874015748031496
4.706465005874634,0.11811023622047244,0.7165354330708661,0.23622047244094488,-0.007874015748031496,-0.023622047244094488,-0.015748031496062992,0.023622047244094488,0.023622047244094488
4.706787943840027,-0.05511811023622047,-0.11811023622047244,-0.10236220472440945,-0.015748031496062992,-0.007874015748031496,-0.023622047244094488,-0.047244094488188976,-0.047244094488188976
4.70711088180542,0.007874015748031496,0.2992125984251969,0.1732283464566929,0.03937007874015748,0.007874015748031496,0.023622047244094488,0.023622047244094488,0.11811023622047244
4.707216262817383,0.07086614173228346,0.2047244094488189,-0.007874015748031496,0.015748031496062992,0.0,0.007874015748031496,0.0,-0.08661417322834646
4.707321643829346,-0.047244094488188976,-0.1889763779527559,-0.05511811023622047,0.007874015748031496,-0.007874015748031496,-0.015748031496062992,0.0,-0.007874015748031496
4.707657694816589,-0.007874015748031496,0.047244094488188976,0.08661417322834646,0.031496062992125984,0.007874015748031496,0.0,-0.007874015748031496,0.007874015748031496
4.707993745803833,0.023622047244094488,-0.07874015748031496,-0.03937007874015748,-0.08661417322834646,-0.015748031496062992,-0.031496062992125984,-0.031496062992125984,-0.05511811023622047
4.70815634727478,-0.07086614173228346,0.03937007874015748,0.05511811023622047,-0.05511811023622047,-0.023622047244094488,-0.015748031496062992,0.023622047244094488,0.14960629921259844
4.7083189487457275,-0.031496062992125984,-0.05511811023622047,-0.07874015748031496,0.015748031496062992,0.007874015748031496,0.007874015748031496,-0.05511811023622047,-0.28346456692913385
4.708612442016602,0.015748031496062992,0.05511811023622047,0.09448818897637795,0.0,-0.023622047244094488,-0.023622047244094488,-0.015748031496062992,-0.007874015748031496
4.708905935287476,-0.015748031496062992,-0.08661417322834646,-0.2283464566929134,-0.047244094488188976,-0.015748031496062992,-0.007874015748031496,-0.031496062992125984,-0.015748031496062992
4.709004878997803,0.007874015748031496,-0.07874015748031496,-0.023622047244094488,0.0,-0.007874015748031496,-0.023622047244094488,-0.007874015748031496,-0.023622047244094488
4.70910382270813,-0.007874015748031496,-0.1732283464566929,-0.047244094488188976,0.0,-0.007874015748031496,-0.015748031496062992,-0.007874015748031496,0.07874015748031496
4.709311842918396,0.0,0.03937007874015748,0.07086614173228346,0.047244094488188976,0.015748031496062992,0.015748031496062992,0.015748031496062992,0.015748031496062992
4.709519863128662,-0.047244094488188976,-0.1968503937007874,-0.09448818897637795,-0.023622047244094488,-0.03937007874015748,-0.031496062992125984,-0.031496062992125984,-0.07086614173228346
4.709619402885437,-0.015748031496062992,-0.047244094488188976,-0.07874015748031496,-0.03937007874015748,-0.023622047244094488,-0.007874015748031496,-0.023622047244094488,0.007874015748031496
4.709718942642212,-0.031496062992125984,0.11023622047244094,0.015748031496062992,-0.023622047244094488,0.007874015748031496,0.007874015748031496,0.0,0.047244094488188976
4.709962368011475,0.007874015748031496,-0.07874015748031496,-0.12598425196850394,0.015748031496062992,0.0,0.015748031496062992,0.0,-0.03937007874015748
4.710205793380737,-0.015748031496062992,0.03937007874015748,0.07874015748031496,0.023622047244094488,0.015748031496062992,0.007874015748031496,-0.007874015748031496,0.015748031496062992
4.7103047370910645,0.015748031496062992,0.0,-0.015748031496062992,-0.06299212598425197,-0.047244094488188976,-0.015748031496062992,0.0,-0.023622047244094488
4.710403680801392,-0.007874015748031496,-0.11023622047244094,-0.09448818897637795,-0.007874015748031496,0.0,-0.007874015748031496,-0.007874015748031496,0.007874015748031496
4.710682272911072,-0.007874015748031496,-0.05511811023622047,-0.015748031496062992,-0.031496062992125984,-0.031496062992125984,-0.023622047244094488,0.0,-0.007874015748031496
4.710960865020752,-0.023622047244094488,-0.015748031496062992,-0.031496062992125984,0.023622047244094488,-0.007874015748031496,-0.015748031496062992,0.0,0.031496062992125984
4.711062788963318,0.007874015748031496,-0.007874015748031496,-0.031496062992125984,0.007874015748031496,-0.007874015748031496,-0.031496062992125984,-0.015748031496062992,0.007874015748031496
4.711164712905884,-0.13385826771653545,-0.5669291338582677,-0.2047244094488189,-0.031496062992125984,-0.015748031496062992,-0.023622047244094488,-0.03937007874015748,-0.07874015748031496
4.711516261100769,-0.007874015748031496,0.09448818897637795,0.05511811023622047,0.007874015748031496,0.015748031496062992,0.015748031496062992,0.047244094488188976,0.1968503937007874
4.711867809295654,-0.015748031496062992,0.023622047244094488,0.0,-0.03937007874015748,-0.031496062992125984,-0.023622047244094488,-0.09448818897637795,-0.2677165354330709
4.711989760398865,0.031496062992125984,0.0,0.047244094488188976,0.023622047244094488,0.0,-0.007874015748031496,-0.007874015748031496,-0.015748031496062992
4.712111711502075,-0.007874015748031496,-0.1732283464566929,-0.07874015748031496,-0.031496062992125984,-0.015748031496062992,-0.007874015748031496,0.0,0.015748031496062992
4.712353825569153,0.03937007874015748,0.047244094488188976,0.08661417322834646,0.023622047244094488,-0.007874015748031496,-0.007874015748031496,0.0,0.023622047244094488
4.7125959396362305,-0.015748031496062992,-0.10236220472440945,-0.2047244094488189,-0.023622047244094488,0.0,-0.007874015748031496,0.015748031496062992,0.05511811023622047
4.712730407714844,-0.11811023622047244,-0.16535433070866143,-0.03937007874015748,-0.03937007874015748,-0.007874015748031496,-0.023622047244094488,-0.031496062992125984,-0.05511811023622047
4.712864875793457,0.0,0.2047244094488189,0.10236220472440945,0.03937007874015748,0.015748031496062992,0.007874015748031496,0.0,0.007874015748031496
4.713113307952881,0.0,-0.10236220472440945,-0.1889763779527559,-0.09448818897637795,-0.031496062992125984,-0.007874015748031496,-0.007874015748031496,-0.031496062992125984
4.713361740112305,0.07874015748031496,0.14173228346456693,0.11023622047244094,0.015748031496062992,0.0,0.015748031496062992,0.007874015748031496,0.05511811023622047
4.713505268096924,-0.031496062992125984,-0.007874015748031496,0.023622047244094488,0.015748031496062992,0.007874015748031496,0.007874015748031496,-0.007874015748031496,-0.047244094488188976
4.713648796081543,0.0,0.11023622047244094,0.031496062992125984,-0.007874015748031496,0.0,0.0,0.007874015748031496,0.08661417322834646
4.714016795158386,-0.015748031496062992,0.03937007874015748,0.12598425196850394,0.015748031496062992,-0.007874015748031496,-0.007874015748031496,-0.031496062992125984,-0.05511811023622047
4.7143847942352295,0.007874015748031496,-0.07874015748031496,0.031496062992125984,-0.023622047244094488,-0.015748031496062992,0.0,0.0,0.007874015748031496
4.714518785476685,0.031496062992125984,0.07086614173228346,0.0,0.047244094488188976,0.023622047244094488,0.007874015748031496,0.007874015748031496,0.023622047244094488
4.71465277671814,0.047244094488188976,-0.33858267716535434,-0.05511811023622047,-0.09448818897637795,-0.047244094488188976,-0.03937007874015748,-0.023622047244094488,-0.015748031496062992
4.714888334274292,-0.1889763779527559,-0.7086614173228346,-0.12598425196850394,-0.08661417322834646,-0.03937007874015748,-0.047244094488188976,-0.047244094488188976,-0.11023622047244094
4.715123891830444,-0.031496062992125984,-0.023622047244094488,-0.13385826771653545,-0.023622047244094488,-0.015748031496062992,-0.015748031496062992,0.023622047244094488,0.03937007874015748
4.715227246284485,0.0,0.031496062992125984,0.031496062992125984,0.0,0.007874015748031496,0.007874015748031496,-0.015748031496062992,-0.07874015748031496
4.715330600738525,0.031496062992125984,0.09448818897637795,0.06299212598425197,0.047244094488188976,0.007874015748031496,0.007874015748031496,0.015748031496062992,-0.007874015748031496
4.7155396938323975,-0.03937007874015748,-0.03937007874015748,-0.047244094488188976,0.023622047244094488,0.0,0.0,-0.047244094488188976,-0.06299212598425197
4.7157487869262695,0.11811023622047244,0.5669291338582677,0.08661417322834646,0.015748031496062992,-0.007874015748031496,-0.007874015748031496,0.015748031496062992,0.05511811023622047
4.715847373008728,0.023622047244094488,-0.023622047244094488,0.047244094488188976,-0.031496062992125984,0.0,-0.015748031496062992,0.0,0.047244094488188976
4.7159459590911865,0.0,0.07874015748031496,0.007874015748031496,0.015748031496062992,0.007874015748031496,0.015748031496062992,0.023622047244094488,0.03937007874015748
4.716147422790527,0.023622047244094488,0.1968503937007874,0.13385826771653545,-0.007874015748031496,-0.015748031496062992,-0.023622047244094488,-0.015748031496062992,-0.14173228346456693
4.716348886489868,-0.03937007874015748,-0.23622047244094488,0.05511811023622047,0.0,0.007874015748031496,0.015748031496062992,0.0,-0.007874015748031496
4.716442346572876,-0.023622047244094488,-0.007874015748031496,-0.08661417322834646,-0.03937007874015748,-0.023622047244094488,-0.015748031496062992,-0.015748031496062992,0.0
4.716535806655884,-0.07086614173228346,-0.03937007874015748,0.0,-0.06299212598425197,-0.031496062992125984,-0.031496062992125984,-0.023622047244094488,-0.03937007874015748
4.716752886772156,-0.07086614173228346,-0.4645669291338583,-0.03937007874015748,-0.015748031496062992,0.0,0.0,0.007874015748031496,0.047244094488188976
4.716969966888428,-0.07874015748031496,0.1968503937007874,0.14173228346456693,0.07086614173228346,0.023622047244094488,0.0,0.0,0.0
4.717064380645752,-0.023622047244094488,-0.07874015748031496,0.11811023622047244,0.031496062992125984,0.0,-0.007874015748031496,-0.023622047244094488,-0.031496062992125984
4.717158794403076,-0.05511811023622047,0.015748031496062992,-0.10236220472440945,-0.05511811023622047,-0.007874015748031496,0.0,-0.023622047244094488,0.023622047244094488
4.717357277870178,0.09448818897637795,0.11023622047244094,-0.25196850393700787,-0.047244094488188976,0.0,-0.015748031496062992,0.015748031496062992,0.015748031496062992
4.71755576133728,-0.007874015748031496,-0.30708661417322836,-0.11023622047244094,-0.11023622047244094,-0.07086614173228346,-0.047244094488188976,-0.047244094488188976,-0.047244094488188976
4.7176477909088135,-0.031496062992125984,0.1968503937007874,0.10236220472440945,0.03937007874015748,0.0,0.007874015748031496,0.015748031496062992,-0.007874015748031496
4.717739820480347,-0.031496062992125984,0.14173228346456693,-0.08661417322834646,-0.007874015748031496,-0.007874015748031496,-0.007874015748031496,0.0,-0.015748031496062992
4.717943787574768,0.007874015748031496,0.18110236220472442,0.007874015748031496,0.007874015748031496,0.0,0.007874015748031496,-0.007874015748031496,-0.007874015748031496
4.7181477546691895,0.0,-0.047244094488188976,0.031496062992125984,0.031496062992125984,0.007874015748031496,0.0,-0.015748031496062992,-0.031496062992125984
4.718241333961487,-0.03937007874015748,-0.10236220472440945,0.0,0.0,-0.007874015748031496,-0.007874015748031496,-0.007874015748031496,-0.007874015748031496
4.718334913253784,0.03937007874015748,0.05511811023622047,0.031496062992125984,-0.047244094488188976,-0.015748031496062992,-0.007874015748031496,-0.015748031496062992,0.0
4.718605875968933,0.007874015748031496,0.12598425196850394,-0.023622047244094488,0.047244094488188976,0.015748031496062992,0.023622047244094488,0.007874015748031496,0.015748031496062992
4.718876838684082,-0.015748031496062992,-0.07874015748031496,-0.047244094488188976,-0.023622047244094488,-0.015748031496062992,0.0,0.007874015748031496,0.031496062992125984
4.718977332115173,0.0,-0.08661417322834646,0.15748031496062992,0.007874015748031496,-0.015748031496062992,-0.031496062992125984,-0.023622047244094488,-0.023622047244094488
4.719077825546265,-0.07874015748031496,-0.07874015748031496,-0.031496062992125984,0.007874015748031496,0.0,-0.007874015748031496,0.007874015748031496,-0.03937007874015748
4.719322323799133,0.007874015748031496,0.09448818897637795,-0.007874015748031496,-0.07874015748031496,-0.047244094488188976,-0.015748031496062992,-0.015748031496062992,-0.007874015748031496
4.719566822052002,-0.047244094488188976,0.16535433070866143,0.11811023622047244,0.09448818897637795,0.03937007874015748,0.0,0.0,0.007874015748031496
4.719700813293457,0.13385826771653545,0.7637795275590551,-0.015748031496062992,-0.031496062992125984,0.023622047244094488,0.015748031496062992,0.0,0.03937007874015748
4.719834804534912,0.03937007874015748,0.05511811023622047,0.07874015748031496,0.015748031496062992,-0.06299212598425197,-0.047244094488188976,-0.015748031496062992,0.007874015748031496
4.720041275024414,-0.007874015748031496,0.0,0.047244094488188976,-0.07874015748031496,-0.047244094488188976,-0.03937007874015748,-0.023622047244094488,-0.015748031496062992
4.720247745513916,0.047244094488188976,-0.3464566929133858,-0.11023622047244094,-0.015748031496062992,0.015748031496062992,-0.007874015748031496,0.007874015748031496,0.06299212598425197
4.720341324806213,-0.047244094488188976,-0.2755905511811024,-0.11023622047244094,-0.031496062992125984,-0.023622047244094488,-0.031496062992125984,-0.03937007874015748,-0.16535433070866143
4.720434904098511,0.047244094488188976,0.10236220472440945,0.047244094488188976,0.08661417322834646,0.03937007874015748,0.023622047244094488,0.023622047244094488,0.031496062992125984
4.720651268959045,0.03937007874015748,0.09448818897637795,0.047244094488188976,0.06299212598425197,0.015748031496062992,0.007874015748031496,-0.007874015748031496,0.03937007874015748
4.72086763381958,-0.031496062992125984,-0.15748031496062992,-0.07874015748031496,-0.03937007874015748,-0.03937007874015748,0.0,-0.023622047244094488,-0.07086614173228346
4.720959663391113,-0.015748031496062992,-0.13385826771653545,-0.05511811023622047,0.0,0.0,0.0,0.023622047244094488,0.10236220472440945
4.7210516929626465,0.07874015748031496,-0.07086614173228346,-0.1968503937007874,-0.047244094488188976,-0.015748031496062992,-0.015748031496062992,-0.015748031496062992,-0.05511811023622047
4.72137725353241,-0.09448818897637795,0.0,0.14960629921259844,0.09448818897637795,0.015748031496062992,0.0,0.007874015748031496,-0.031496062992125984
4.721702814102173,-0.007874015748031496,0.007874015748031496,-0.07086614173228346,-0.015748031496062992,0.0,0.007874015748031496,-0.023622047244094488,-0.007874015748031496
4.721872806549072,0.007874015748031496,0.25196850393700787,-0.11023622047244094,-0.047244094488188976,-0.03937007874015748,-0.023622047244094488,-0.015748031496062992,0.007874015748031496
4.722042798995972,-0.03937007874015748,0.13385826771653545,0.07874015748031496,0.05511811023622047,0.023622047244094488,0.015748031496062992,0.015748031496062992,0.047244094488188976
4.7222607135772705,0.06299212598425197,0.023622047244094488,-0.047244094488188976,-0.10236220472440945,-0.015748031496062992,-0.007874015748031496,-0.015748031496062992,-0.023622047244094488
4.722478628158569,-0.007874015748031496,-0.031496062992125984,-0.031496062992125984,-0.023622047244094488,-0.015748031496062992,-0.015748031496062992,-0.015748031496062992,-0.03937007874015748
4.722572207450867,0.015748031496062992,-0.1968503937007874,0.0,0.07086614173228346,-0.007874015748031496,0.0,0.0,0.0
4.722665786743164,-0.015748031496062992,0.047244094488188976,0.015748031496062992,-0.047244094488188976,-0.023622047244094488,0.0,0.015748031496062992,0.03937007874015748
4.722923755645752,-0.03937007874015748,-0.1968503937007874,-0.007874015748031496,0.023622047244094488,0.015748031496062992,-0.015748031496062992,-0.007874015748031496,-0.031496062992125984
4.72318172454834,-0.06299212598425197,0.2204724409448819,0.03937007874015748,0.015748031496062992,0.015748031496062992,0.015748031496062992,-0.007874015748031496,-0.06299212598425197
4.723310232162476,0.09448818897637795,0.10236220472440945,0.2125984251968504,0.06299212598425197,0.023622047244094488,0.0,0.0,0.023622047244094488
4.723438739776611,-0.015748031496062992,-0.47244094488188976,-0.16535433070866143,-0.05511811023622047,-0.031496062992125984,-0.023622047244094488,-0.031496062992125984,-0.031496062992125984
4.723676323890686,-0.11023622047244094,-0.2440944881889764,-0.1968503937007874,-0.1889763779527559,-0.07086614173228346,-0.047244094488188976,-0.031496062992125984,-0.07086614173228346
4.723913908004761,-0.03937007874015748,-0.10236220472440945,-0.03937007874015748,-0.07086614173228346,-0.015748031496062992,-0.023622047244094488,-0.015748031496062992,0.0
4.724074363708496,-0.031496062992125984,-0.1889763779527559,0.015748031496062992,0.015748031496062992,0.0,-0.031496062992125984,-0.007874015748031496,0.023622047244094488
4.7242348194122314,0.015748031496062992,0.07086614173228346,0.14960629921259844,0.07086614173228346,0.023622047244094488,0.015748031496062992,-0.015748031496062992,-0.031496062992125984
4.724577307701111,0.09448818897637795,0.2125984251968504,0.0,0.047244094488188976,0.0,0.007874015748031496,0.007874015748031496,0.047244094488188976
4.72491979598999,-0.031496062992125984,-0.10236220472440945,-0.05511811023622047,-0.031496062992125984,-0.031496062992125984,-0.031496062992125984,0.0,0.015748031496062992
4.725077271461487,0.07874015748031496,0.33070866141732286,-0.023622047244094488,-0.047244094488188976,-0.007874015748031496,0.015748031496062992,0.07086614173228346,0.11811023622047244
4.725234746932983,0.0,0.0,0.023622047244094488,0.0,-0.015748031496062992,-0.015748031496062992,-0.11811023622047244,-0.14960629921259844
4.7255542278289795,-0.023622047244094488,-0.23622047244094488,-0.07086614173228346,-0.031496062992125984,-0.015748031496062992,-0.007874015748031496,-0.007874015748031496,-0.015748031496062992
4.725873708724976,-0.047244094488188976,0.41732283464566927,0.07874015748031496,0.05511811023622047,0.0,0.007874015748031496,-0.007874015748031496,0.0
4.72600781917572,-0.07874015748031496,-0.2125984251968504,-0.07874015748031496,-0.015748031496062992,-0.023622047244094488,-0.015748031496062992,0.0,0.023622047244094488
4.726141929626465,-0.047244094488188976,-0.28346456692913385,0.015748031496062992,-0.031496062992125984,-0.007874015748031496,-0.007874015748031496,0.031496062992125984,-0.023622047244094488
4.726351857185364,0.047244094488188976,0.2755905511811024,-0.18110236220472442,-0.07086614173228346,-0.031496062992125984,-0.015748031496062992,-0.015748031496062992,0.015748031496062992
4.726561784744263,0.1968503937007874,-0.007874015748031496,0.13385826771653545,0.015748031496062992,0.0,0.0,0.023622047244094488,0.047244094488188976
4.726675748825073,-0.07086614173228346,-0.09448818897637795,-0.07874015748031496,-0.031496062992125984,-0.015748031496062992,0.007874015748031496,0.0,-0.023622047244094488
4.726789712905884,-0.031496062992125984,0.15748031496062992,0.031496062992125984,0.023622047244094488,0.015748031496062992,-0.015748031496062992,-0.015748031496062992,0.05511811023622047
4.727030277252197,0.11811023622047244,0.14173228346456693,0.2283464566929134,0.12598425196850394,0.031496062992125984,0.031496062992125984,0.007874015748031496,-0.007874015748031496
4.727270841598511,-0.18110236220472442,-0.5669291338582677,-0.41732283464566927,-0.11811023622047244,-0.03937007874015748,-0.047244094488188976,-0.015748031496062992,-0.031496062992125984
4.732460856437683,-0.10236220472440945,-0.33070866141732286,-0.11811023622047244,-0.07086614173228346,-0.023622047244094488,-0.015748031496062992,-0.047244094488188976,-0.06299212598425197
4.7376508712768555,0.0,0.08661417322834646,0.05511811023622047,0.031496062992125984,0.007874015748031496,-0.015748031496062992,0.0,0.05511811023622047
4.741550922393799,-0.023622047244094488,0.03937007874015748,0.09448818897637795,0.023622047244094488,0.0,0.015748031496062992,0.0,-0.03937007874015748
4.745450973510742,0.007874015748031496,0.007874015748031496,0.0,0.007874015748031496,0.0,0.023622047244094488,-0.015748031496062992,-0.007874015748031496
4.748470783233643,-0.015748031496062992,-0.1732283464566929,-0.023622047244094488,0.0,0.0,0.0,-0.023622047244094488,-0.031496062992125984
4.751490592956543,-0.023622047244094488,-0.16535433070866143,-0.1968503937007874,-0.03937007874015748,-0.023622047244094488,-0.015748031496062992,-0.015748031496062992,-0.047244094488188976
4.758982181549072,-0.007874015748031496,0.0,0.06299212598425197,0.007874015748031496,-0.007874015748031496,-0.007874015748031496,0.031496062992125984,0.07086614173228346
4.766473770141602,-0.031496062992125984,0.07086614173228346,-0.11023622047244094,-0.03937007874015748,-0.007874015748031496,-0.023622047244094488,-0.047244094488188976,-0.023622047244094488
4.770550727844238,0.023622047244094488,-0.03937007874015748,0.031496062992125984,0.015748031496062992,-0.015748031496062992,-0.015748031496062992,-0.023622047244094488,-0.07874015748031496
4.774627685546875,-0.015748031496062992,0.03937007874015748,-0.007874015748031496,-0.031496062992125984,-0.007874015748031496,-0.007874015748031496,0.015748031496062992,0.03937007874015748
4.77813720703125,-0.07086614173228346,0.09448818897637795,-0.05511811023622047,0.023622047244094488,0.015748031496062992,0.0,0.0,-0.015748031496062992
4.781646728515625,0.03937007874015748,-0.023622047244094488,0.08661417322834646,0.015748031496062992,-0.015748031496062992,-0.023622047244094488,-0.015748031496062992,0.0
4.7899638414382935,-0.031496062992125984,-0.28346456692913385,-0.08661417322834646,-0.06299212598425197,-0.023622047244094488,-0.015748031496062992,-0.031496062992125984,-0.08661417322834646
4.798280954360962,-0.05511811023622047,0.06299212598425197,-0.031496062992125984,-0.007874015748031496,0.0,0.007874015748031496,0.0,-0.015748031496062992
4.80522096157074,0.015748031496062992,-0.015748031496062992,0.0,0.023622047244094488,0.007874015748031496,-0.007874015748031496,-0.015748031496062992,0.007874015748031496
4.812160968780518,0.007874015748031496,-0.007874015748031496,0.03937007874015748,0.023622047244094488,-0.015748031496062992,-0.023622047244094488,0.007874015748031496,0.0
4.812559366226196,-0.13385826771653545,-0.11811023622047244,-0.023622047244094488,-0.05511811023622047,-0.015748031496062992,-0.015748031496062992,-0.031496062992125984,-0.007874015748031496
4.812957763671875,0.2755905511811024,0.4094488188976378,0.09448818897637795,0.023622047244094488,0.007874015748031496,0.007874015748031496,0.047244094488188976,0.11811023622047244
4.8197221755981445,-0.05511811023622047,0.05511811023622047,-0.007874015748031496,-0.015748031496062992,-0.015748031496062992,0.007874015748031496,-0.015748031496062992,-0.07086614173228346
4.826486587524414,0.06299212598425197,0.16535433070866143,-0.03937007874015748,0.14173228346456693,0.06299212598425197,0.031496062992125984,0.023622047244094488,0.015748031496062992
4.830633640289307,-0.031496062992125984,-0.2755905511811024,0.015748031496062992,-0.007874015748031496,-0.031496062992125984,-0.023622047244094488,-0.023622047244094488,0.0
4.834780693054199,-0.07086614173228346,0.07874015748031496,-0.1732283464566929,-0.1732283464566929,-0.05511811023622047,-0.047244094488188976,-0.03937007874015748,-0.03937007874015748
4.838130235671997,0.007874015748031496,-0.05511811023622047,0.07874015748031496,0.023622047244094488,0.0,-0.023622047244094488,0.0,0.047244094488188976
4.841479778289795,0.015748031496062992,0.0,0.023622047244094488,-0.03937007874015748,0.0,0.0,0.007874015748031496,-0.03937007874015748
4.849197864532471,0.007874015748031496,-0.031496062992125984,0.09448818897637795,0.07874015748031496,0.015748031496062992,0.0,-0.007874015748031496,-0.023622047244094488
4.8569159507751465,-0.06299212598425197,-0.1732283464566929,-0.07874015748031496,0.031496062992125984,0.007874015748031496,0.0,0.031496062992125984,0.07086614173228346
4.861185312271118,0.0,0.16535433070866143,0.05511811023622047,-0.023622047244094488,-0.023622047244094488,-0.015748031496062992,-0.08661417322834646,-0.2440944881889764
4.86545467376709,-0.07086614173228346,-0.11023622047244094,0.023622047244094488,0.023622047244094488,0.007874015748031496,0.0,-0.015748031496062992,0.007874015748031496
4.868517279624939,-0.031496062992125984,0.15748031496062992,-0.03937007874015748,-0.05511811023622047,0.0,0.015748031496062992,-0.015748031496062992,-0.015748031496062992
4.871579885482788,-0.007874015748031496,-0.08661417322834646,0.015748031496062992,-0.023622047244094488,-0.023622047244094488,-0.007874015748031496,-0.007874015748031496,-0.03937007874015748
4.879032850265503,0.0,-0.015748031496062992,-0.03937007874015748,-0.007874015748031496,-0.007874015748031496,0.0,0.03937007874015748,0.09448818897637795
4.886485815048218,0.14960629921259844,0.25984251968503935,0.05511811023622047,0.0,-0.007874015748031496,-0.007874015748031496,-0.023622047244094488,-0.047244094488188976
4.890643239021301,0.12598425196850394,0.11811023622047244,-0.08661417322834646,0.0,-0.007874015748031496,0.007874015748031496,0.06299212598425197,0.031496062992125984
4.894800662994385,-0.015748031496062992,0.015748031496062992,0.007874015748031496,-0.015748031496062992,-0.007874015748031496,0.0,-0.05511811023622047,-0.023622047244094488
4.898149728775024,-0.07086614173228346,-0.2677165354330709,0.0,-0.023622047244094488,-0.007874015748031496,-0.015748031496062992,0.007874015748031496,0.031496062992125984
4.901498794555664,0.015748031496062992,-0.18110236220472442,0.0,-0.023622047244094488,-0.031496062992125984,-0.023622047244094488,-0.015748031496062992,-0.031496062992125984
4.90952730178833,0.0,0.11023622047244094,0.06299212598425197,0.007874015748031496,-0.015748031496062992,-0.023622047244094488,0.0,0.03937007874015748
4.917555809020996,-0.03937007874015748,-0.03937007874015748,-0.09448818897637795,0.03937007874015748,0.007874015748031496,0.007874015748031496,-0.007874015748031496,-0.03937007874015748
4.925902366638184,0.031496062992125984,0.047244094488188976,-0.06299212598425197,-0.023622047244094488,0.0,0.0,-0.007874015748031496,0.06299212598425197
4.934248924255371,-0.023622047244094488,-0.2204724409448819,-0.015748031496062992,-0.015748031496062992,0.0,0.0,-0.007874015748031496,-0.07874015748031496
4.93464994430542,0.007874015748031496,0.13385826771653545,0.0,-0.06299212598425197,-0.03937007874015748,-0.007874015748031496,-0.007874015748031496,0.015748031496062992
4.935050964355469,-0.023622047244094488,-0.03937007874015748,-0.03937007874015748,0.023622047244094488,-0.007874015748031496,-0.007874015748031496,0.023622047244094488,-0.023622047244094488
4.940732836723328,0.0,-0.08661417322834646,-0.09448818897637795,-0.05511811023622047,-0.015748031496062992,-0.007874015748031496,0.0,-0.007874015748031496
4.9464147090911865,-0.007874015748031496,-0.023622047244094488,0.0,-0.047244094488188976,-0.023622047244094488,-0.015748031496062992,0.0,0.03937007874015748
4.950784206390381,-0.10236220472440945,-0.41732283464566927,-0.015748031496062992,0.023622047244094488,0.007874015748031496,0.015748031496062992,0.0,-0.007874015748031496
4.955153703689575,-0.07874015748031496,0.13385826771653545,0.2992125984251969,0.09448818897637795,0.007874015748031496,0.015748031496062992,0.0,-0.05511811023622047
4.962095737457275,0.10236220472440945,0.16535433070866143,-0.12598425196850394,-0.031496062992125984,0.007874015748031496,0.007874015748031496,0.015748031496062992,0.06299212598425197
4.969037771224976,-0.05511811023622047,0.031496062992125984,-0.06299212598425197,-0.08661417322834646,-0.03937007874015748,-0.007874015748031496,0.015748031496062992,0.0
4.972998857498169,0.015748031496062992,-0.015748031496062992,-0.023622047244094488,-0.015748031496062992,-0.015748031496062992,-0.023622047244094488,-0.007874015748031496,0.015748031496062992
4.976959943771362,0.08661417322834646,0.23622047244094488,0.10236220472440945,0.007874015748031496,0.0,-0.007874015748031496,-0.023622047244094488,-0.05511811023622047
4.984653353691101,-0.047244094488188976,-0.031496062992125984,0.0,0.023622047244094488,0.007874015748031496,-0.007874015748031496,0.007874015748031496,-0.015748031496062992
4.99234676361084,-0.08661417322834646,-0.023622047244094488,0.09448818897637795,0.007874015748031496,-0.007874015748031496,0.0,-0.015748031496062992,-0.015748031496062992
4.996048212051392,0.015748031496062992,0.12598425196850394,-0.07874015748031496,0.0,-0.015748031496062992,-0.023622047244094488,-0.023622047244094488,-0.023622047244094488
4.999749660491943,-0.023622047244094488,-0.031496062992125984,-0.023622047244094488,0.007874015748031496,-0.007874015748031496,-0.007874015748031496,0.0,0.023622047244094488
