,emg1,emg2,emg3,emg4,emg5,emg6,emg7,emg8
5.654849052429199,-0.007874015748031496,0.0,0.007874015748031496,0.023622047244094488,-0.015748031496062992,-0.007874015748031496,-0.007874015748031496,-0.007874015748031496
5.655563116073608,-0.007874015748031496,-0.015748031496062992,-0.031496062992125984,-0.047244094488188976,0.0,0.0,-0.007874015748031496,-0.015748031496062992
5.656277179718018,0.0,-0.007874015748031496,-0.023622047244094488,-0.007874015748031496,-0.023622047244094488,-0.015748031496062992,0.0,-0.015748031496062992
5.656670689582825,-0.007874015748031496,-0.015748031496062992,0.0,0.06299212598425197,0.015748031496062992,0.007874015748031496,-0.015748031496062992,-0.007874015748031496
5.657064199447632,0.0,0.023622047244094488,0.007874015748031496,0.007874015748031496,-0.007874015748031496,-0.015748031496062992,-0.015748031496062992,-0.015748031496062992
5.657256603240967,-0.015748031496062992,0.031496062992125984,-0.031496062992125984,-0.09448818897637795,-0.047244094488188976,-0.023622047244094488,-0.015748031496062992,-0.031496062992125984
5.657449007034302,-0.007874015748031496,-0.023622047244094488,-0.047244094488188976,0.0,-0.031496062992125984,-0.03937007874015748,-0.015748031496062992,-0.023622047244094488
5.658286094665527,-0.015748031496062992,-0.031496062992125984,0.007874015748031496,0.031496062992125984,-0.007874015748031496,0.0,-0.007874015748031496,-0.023622047244094488
5.659123182296753,-0.023622047244094488,-0.03937007874015748,-0.07086614173228346,-0.03937007874015748,-0.015748031496062992,-0.007874015748031496,0.0,0.0
5.659643650054932,-0.007874015748031496,-0.015748031496062992,0.0,0.031496062992125984,-0.007874015748031496,-0.015748031496062992,0.0,0.0
5.66016411781311,-0.007874015748031496,-0.007874015748031496,-0.023622047244094488,-0.015748031496062992,-0.007874015748031496,-0.007874015748031496,-0.007874015748031496,-0.015748031496062992
5.660393714904785,0.0,0.023622047244094488,0.007874015748031496,0.0,-0.023622047244094488,-0.015748031496062992,-0.023622047244094488,-0.015748031496062992
5.66062331199646,-0.007874015748031496,0.0,-0.047244094488188976,-0.07086614173228346,-0.023622047244094488,0.0,0.0,-0.023622047244094488
5.6611021757125854,-0.007874015748031496,0.023622047244094488,0.023622047244094488,0.06299212598425197,0.0,-0.007874015748031496,-0.015748031496062992,-0.007874015748031496
5.661581039428711,-0.023622047244094488,-0.015748031496062992,-0.031496062992125984,-0.03937007874015748,-0.031496062992125984,-0.015748031496062992,-0.015748031496062992,-0.007874015748031496
5.661822080612183,-0.007874015748031496,-0.007874015748031496,-0.007874015748031496,-0.007874015748031496,-0.015748031496062992,-0.023622047244094488,0.0,0.0
5.662063121795654,0.007874015748031496,0.007874015748031496,0.015748031496062992,0.0,0.007874015748031496,0.0,-0.007874015748031496,-0.015748031496062992
5.662650227546692,-0.023622047244094488,0.08661417322834646,0.031496062992125984,0.031496062992125984,-0.023622047244094488,-0.031496062992125984,-0.023622047244094488,-0.03937007874015748
5.6632373332977295,0.0,0.0,0.047244094488188976,0.031496062992125984,0.015748031496062992,0.007874015748031496,0.0,0.0
5.663443684577942,-0.007874015748031496,-0.047244094488188976,-0.047244094488188976,-0.007874015748031496,-0.023622047244094488,-0.007874015748031496,0.0,-0.015748031496062992
5.663650035858154,-0.007874015748031496,-0.007874015748031496,-0.031496062992125984,-0.05511811023622047,0.0,-0.007874015748031496,-0.015748031496062992,-0.007874015748031496
5.664171576499939,0.007874015748031496,-0.007874015748031496,-0.007874015748031496,-0.03937007874015748,-0.023622047244094488,-0.015748031496062992,-0.007874015748031496,0.0
5.664693117141724,-0.007874015748031496,-0.047244094488188976,-0.023622047244094488,-0.023622047244094488,-0.023622047244094488,-0.015748031496062992,-0.007874015748031496,-0.007874015748031496
5.664935111999512,-0.015748031496062992,-0.031496062992125984,0.007874015748031496,0.03937007874015748,0.0,-0.015748031496062992,-0.015748031496062992,0.0
5.6651771068573,-0.023622047244094488,-0.007874015748031496,0.031496062992125984,0.023622047244094488,0.007874015748031496,-0.015748031496062992,-0.015748031496062992,-0.007874015748031496
5.66576075553894,-0.007874015748031496,-0.03937007874015748,0.007874015748031496,0.03937007874015748,0.023622047244094488,0.015748031496062992,0.0,0.0
5.666344404220581,-0.015748031496062992,-0.023622047244094488,-0.06299212598425197,-0.07874015748031496,-0.015748031496062992,-0.023622047244094488,-0.015748031496062992,-0.015748031496062992
5.666567802429199,0.0,-0.023622047244094488,-0.023622047244094488,-0.031496062992125984,0.0,0.0,0.0,0.007874015748031496
5.666791200637817,-0.015748031496062992,-0.015748031496062992,-0.03937007874015748,-0.007874015748031496,-0.031496062992125984,-0.015748031496062992,-0.007874015748031496,-0.015748031496062992
5.667383790016174,-0.007874015748031496,0.015748031496062992,-0.007874015748031496,-0.031496062992125984,-0.007874015748031496,-0.023622047244094488,-0.015748031496062992,0.0
5.667976379394531,0.007874015748031496,0.03937007874015748,0.015748031496062992,0.023622047244094488,0.0,-0.007874015748031496,-0.007874015748031496,0.007874015748031496
5.668279767036438,0.015748031496062992,0.07874015748031496,0.047244094488188976,0.007874015748031496,0.007874015748031496,0.007874015748031496,0.023622047244094488,0.007874015748031496
5.668583154678345,-0.023622047244094488,-0.05511811023622047,0.0,-0.015748031496062992,0.015748031496062992,0.0,0.0,0.0
5.669032573699951,-0.015748031496062992,-0.023622047244094488,0.0,0.007874015748031496,0.007874015748031496,0.023622047244094488,0.015748031496062992,0.007874015748031496
5.669481992721558,0.0,0.0,0.0,0.0,0.015748031496062992,0.007874015748031496,-0.007874015748031496,0.007874015748031496
5.669736623764038,0.015748031496062992,0.031496062992125984,0.0,-0.023622047244094488,-0.007874015748031496,0.007874015748031496,-0.007874015748031496,-0.015748031496062992
5.6699912548065186,0.015748031496062992,0.047244094488188976,0.03937007874015748,0.031496062992125984,0.0,-0.007874015748031496,-0.007874015748031496,0.0
5.6704946756362915,-0.007874015748031496,-0.015748031496062992,0.015748031496062992,0.0,0.0,0.0,-0.007874015748031496,0.0
5.6709980964660645,-0.015748031496062992,-0.031496062992125984,0.015748031496062992,-0.047244094488188976,0.0,-0.007874015748031496,-0.007874015748031496,0.0
5.671209692955017,-0.015748031496062992,-0.015748031496062992,0.0,0.031496062992125984,0.007874015748031496,0.007874015748031496,-0.015748031496062992,0.007874015748031496
5.67142128944397,-0.015748031496062992,0.0,0.0,-0.023622047244094488,-0.007874015748031496,-0.007874015748031496,0.0,-0.007874015748031496
5.67197573184967,0.007874015748031496,0.0,-0.015748031496062992,-0.015748031496062992,0.0,0.0,0.007874015748031496,-0.007874015748031496
5.672530174255371,-0.007874015748031496,-0.007874015748031496,0.0,-0.023622047244094488,-0.015748031496062992,-0.015748031496062992,-0.007874015748031496,0.0
5.672721743583679,-0.023622047244094488,-0.031496062992125984,0.007874015748031496,0.007874015748031496,0.007874015748031496,-0.015748031496062992,-0.007874015748031496,-0.015748031496062992
5.672913312911987,-0.023622047244094488,0.07086614173228346,0.007874015748031496,0.0,-0.015748031496062992,-0.015748031496062992,-0.007874015748031496,-0.007874015748031496
5.6733832359313965,0.06299212598425197,0.023622047244094488,-0.007874015748031496,-0.007874015748031496,-0.015748031496062992,0.0,0.0,0.007874015748031496
5.673853158950806,-0.007874015748031496,-0.023622047244094488,0.007874015748031496,0.007874015748031496,-0.015748031496062992,0.0,-0.007874015748031496,-0.007874015748031496
5.674342632293701,-0.023622047244094488,0.031496062992125984,-0.023622047244094488,-0.023622047244094488,-0.007874015748031496,-0.015748031496062992,-0.015748031496062992,-0.007874015748031496
5.674832105636597,-0.007874015748031496,0.031496062992125984,0.03937007874015748,0.09448818897637795,0.007874015748031496,-0.007874015748031496,-0.007874015748031496,-0.015748031496062992
5.675059080123901,0.007874015748031496,-0.023622047244094488,-0.015748031496062992,-0.11811023622047244,-0.007874015748031496,0.007874015748031496,0.0,-0.015748031496062992
5.675286054611206,-0.007874015748031496,-0.03937007874015748,-0.031496062992125984,0.007874015748031496,0.0,-0.007874015748031496,-0.007874015748031496,-0.007874015748031496
5.675757646560669,0.0,-0.023622047244094488,-0.023622047244094488,-0.015748031496062992,-0.015748031496062992,-0.007874015748031496,-0.015748031496062992,-0.015748031496062992
5.676229238510132,-0.03937007874015748,0.007874015748031496,-0.03937007874015748,0.05511811023622047,0.007874015748031496,-0.023622047244094488,-0.007874015748031496,-0.015748031496062992
5.676518797874451,0.007874015748031496,-0.015748031496062992,0.015748031496062992,0.0,-0.007874015748031496,-0.007874015748031496,-0.007874015748031496,-0.007874015748031496
5.6768083572387695,-0.015748031496062992,-0.015748031496062992,0.0,-0.007874015748031496,0.0,-0.007874015748031496,-0.007874015748031496,0.0
5.677261829376221,-0.023622047244094488,-0.023622047244094488,-0.031496062992125984,-0.031496062992125984,-0.015748031496062992,-0.015748031496062992,-0.031496062992125984,-0.007874015748031496
5.677715301513672,-0.007874015748031496,0.007874015748031496,0.0,0.023622047244094488,0.007874015748031496,0.007874015748031496,-0.007874015748031496,-0.015748031496062992
5.677948236465454,-0.007874015748031496,-0.007874015748031496,-0.015748031496062992,0.0,-0.015748031496062992,-0.007874015748031496,-0.007874015748031496,-0.007874015748031496
5.678181171417236,0.0,0.0,0.0,-0.007874015748031496,0.0,-0.007874015748031496,0.015748031496062992,0.0
5.678651213645935,0.0,-0.007874015748031496,-0.031496062992125984,-0.06299212598425197,0.0,-0.007874015748031496,-0.015748031496062992,0.0
5.679121255874634,-0.007874015748031496,-0.023622047244094488,-0.007874015748031496,0.0,-0.03937007874015748,-0.05511811023622047,-0.007874015748031496,-0.015748031496062992
5.679334282875061,-0.031496062992125984,0.0,-0.007874015748031496,-0.031496062992125984,-0.015748031496062992,-0.11023622047244094,-0.031496062992125984,-0.023622047244094488
5.679547309875488,-0.015748031496062992,0.007874015748031496,-0.023622047244094488,-0.023622047244094488,-0.1889763779527559,0.06299212598425197,-0.023622047244094488,-0.023622047244094488
5.679830312728882,-0.015748031496062992,-0.007874015748031496,-0.023622047244094488,0.03937007874015748,0.12598425196850394,0.09448818897637795,0.007874015748031496,-0.007874015748031496
5.680113315582275,0.0,-0.007874015748031496,-0.015748031496062992,-0.015748031496062992,0.13385826771653545,0.03937007874015748,0.023622047244094488,0.007874015748031496
5.6802077293396,0.0,-0.015748031496062992,0.015748031496062992,0.05511811023622047,0.07086614173228346,0.007874015748031496,0.015748031496062992,0.023622047244094488
5.680302143096924,0.0,-0.015748031496062992,0.031496062992125984,0.015748031496062992,-0.015748031496062992,-0.07086614173228346,-0.023622047244094488,0.0
5.680551648139954,-0.015748031496062992,-0.023622047244094488,-0.023622047244094488,-0.07086614173228346,-0.14173228346456693,-0.047244094488188976,-0.023622047244094488,-0.007874015748031496
5.680801153182983,-0.023622047244094488,-0.007874015748031496,-0.047244094488188976,-0.06299212598425197,-0.06299212598425197,-0.023622047244094488,-0.031496062992125984,-0.015748031496062992
5.680955171585083,-0.03937007874015748,-0.015748031496062992,-0.047244094488188976,-0.023622047244094488,-0.03937007874015748,-0.023622047244094488,-0.031496062992125984,-0.015748031496062992
5.681109189987183,-0.023622047244094488,-0.007874015748031496,-0.023622047244094488,-0.031496062992125984,-0.007874015748031496,-0.015748031496062992,-0.023622047244094488,-0.007874015748031496
5.681343674659729,-0.007874015748031496,0.007874015748031496,0.007874015748031496,0.03937007874015748,0.031496062992125984,0.0,0.0,-0.007874015748031496
5.681578159332275,0.007874015748031496,0.0,0.0,0.015748031496062992,0.06299212598425197,0.015748031496062992,0.0,0.015748031496062992
5.681923151016235,0.0,-0.015748031496062992,0.007874015748031496,-0.07086614173228346,-0.015748031496062992,0.0,0.0,0.007874015748031496
5.682268142700195,-0.047244094488188976,-0.023622047244094488,-0.023622047244094488,-0.047244094488188976,-0.18110236220472442,-0.09448818897637795,-0.07874015748031496,-0.047244094488188976
5.682380676269531,-0.047244094488188976,-0.015748031496062992,-0.08661417322834646,-0.11811023622047244,-0.14173228346456693,-0.09448818897637795,-0.015748031496062992,-0.031496062992125984
5.682493209838867,0.007874015748031496,0.007874015748031496,-0.023622047244094488,-0.007874015748031496,0.07086614173228346,-0.03937007874015748,-0.023622047244094488,-0.007874015748031496
5.682838201522827,-0.007874015748031496,0.023622047244094488,-0.007874015748031496,-0.047244094488188976,-0.09448818897637795,0.023622047244094488,-0.031496062992125984,0.0
5.683183193206787,-0.031496062992125984,-0.023622047244094488,-0.03937007874015748,0.007874015748031496,-0.031496062992125984,0.015748031496062992,0.007874015748031496,-0.031496062992125984
5.683434247970581,-0.015748031496062992,0.0,0.007874015748031496,0.031496062992125984,0.16535433070866143,-0.007874015748031496,-0.007874015748031496,-0.007874015748031496
5.683685302734375,0.007874015748031496,-0.047244094488188976,-0.047244094488188976,-0.07086614173228346,-0.08661417322834646,-0.031496062992125984,-0.007874015748031496,0.0
5.684021234512329,-0.015748031496062992,-0.015748031496062992,-0.007874015748031496,-0.023622047244094488,-0.1732283464566929,-0.03937007874015748,-0.007874015748031496,-0.015748031496062992
5.684357166290283,0.0,0.015748031496062992,0.015748031496062992,-0.10236220472440945,0.031496062992125984,0.023622047244094488,-0.031496062992125984,-0.007874015748031496
5.684532165527344,-0.007874015748031496,-0.015748031496062992,-0.031496062992125984,0.07086614173228346,0.10236220472440945,0.015748031496062992,0.0,-0.023622047244094488
5.684707164764404,0.031496062992125984,-0.015748031496062992,0.007874015748031496,0.023622047244094488,-0.2047244094488189,0.031496062992125984,-0.015748031496062992,-0.015748031496062992
5.6850022077560425,-0.09448818897637795,-0.031496062992125984,-0.03937007874015748,-0.03937007874015748,0.14173228346456693,-0.03937007874015748,0.023622047244094488,0.007874015748031496
5.685297250747681,0.0,-0.007874015748031496,0.007874015748031496,0.047244094488188976,0.1889763779527559,0.015748031496062992,-0.007874015748031496,0.007874015748031496
5.685452222824097,-0.015748031496062992,-0.007874015748031496,0.031496062992125984,0.047244094488188976,0.07086614173228346,0.015748031496062992,-0.015748031496062992,0.0
5.685607194900513,0.015748031496062992,0.023622047244094488,0.07086614173228346,0.06299212598425197,-0.14960629921259844,0.031496062992125984,0.015748031496062992,0.007874015748031496
5.685941696166992,0.015748031496062992,-0.031496062992125984,-0.07874015748031496,-0.047244094488188976,0.09448818897637795,-0.023622047244094488,0.007874015748031496,0.0
5.686276197433472,-0.007874015748031496,0.0,-0.03937007874015748,-0.14960629921259844,-0.18110236220472442,-0.023622047244094488,-0.023622047244094488,-0.015748031496062992
5.686464786529541,-0.023622047244094488,0.0,-0.03937007874015748,-0.11023622047244094,-0.47244094488188976,0.0,0.0,-0.023622047244094488
5.68665337562561,0.007874015748031496,0.031496062992125984,0.047244094488188976,0.2755905511811024,0.4409448818897638,0.06299212598425197,0.023622047244094488,0.015748031496062992
5.686983823776245,0.015748031496062992,-0.031496062992125984,0.0,-0.015748031496062992,0.09448818897637795,0.023622047244094488,0.015748031496062992,0.015748031496062992
5.68731427192688,-0.007874015748031496,-0.031496062992125984,0.007874015748031496,0.0,0.031496062992125984,-0.09448818897637795,-0.023622047244094488,0.0
5.687437295913696,0.031496062992125984,-0.015748031496062992,-0.031496062992125984,-0.08661417322834646,-0.11023622047244094,-0.06299212598425197,-0.047244094488188976,-0.015748031496062992
5.687560319900513,0.015748031496062992,-0.023622047244094488,-0.11023622047244094,-0.25196850393700787,-0.2204724409448819,-0.007874015748031496,-0.031496062992125984,-0.015748031496062992
5.687812685966492,0.015748031496062992,0.03937007874015748,0.031496062992125984,0.06299212598425197,0.07086614173228346,-0.015748031496062992,-0.007874015748031496,-0.007874015748031496
5.688065052032471,-0.18110236220472442,0.015748031496062992,0.031496062992125984,0.14960629921259844,0.16535433070866143,0.0,0.0,-0.015748031496062992
5.688279628753662,-0.047244094488188976,-0.07086614173228346,-0.11023622047244094,-0.1732283464566929,-0.07874015748031496,-0.031496062992125984,-0.03937007874015748,-0.031496062992125984
5.6884942054748535,-0.023622047244094488,-0.10236220472440945,-0.015748031496062992,-0.03937007874015748,-0.2440944881889764,0.0,-0.007874015748031496,-0.023622047244094488
5.688879728317261,0.05511811023622047,-0.023622047244094488,0.007874015748031496,0.08661417322834646,0.14960629921259844,0.015748031496062992,0.0,-0.007874015748031496
5.689265251159668,0.06299212598425197,0.03937007874015748,-0.007874015748031496,-0.07086614173228346,-0.1889763779527559,-0.015748031496062992,0.0,0.0
5.689468741416931,0.0,0.10236220472440945,0.07874015748031496,0.12598425196850394,0.16535433070866143,0.0,0.015748031496062992,0.015748031496062992
5.689672231674194,-0.015748031496062992,0.07874015748031496,-0.007874015748031496,0.09448818897637795,0.2125984251968504,0.03937007874015748,0.007874015748031496,0.0
5.690075755119324,0.015748031496062992,0.015748031496062992,0.0,0.0,-0.06299212598425197,0.023622047244094488,0.0,0.015748031496062992
5.690479278564453,0.023622047244094488,-0.015748031496062992,0.007874015748031496,-0.023622047244094488,0.0,-0.03937007874015748,-0.015748031496062992,-0.015748031496062992
5.69061017036438,-0.015748031496062992,-0.03937007874015748,-0.031496062992125984,-0.07086614173228346,-0.11811023622047244,-0.031496062992125984,-0.03937007874015748,-0.007874015748031496
5.690741062164307,-0.031496062992125984,-0.007874015748031496,-0.015748031496062992,-0.07874015748031496,-0.09448818897637795,-0.06299212598425197,-0.015748031496062992,-0.023622047244094488
5.691043138504028,-0.023622047244094488,-0.007874015748031496,0.015748031496062992,0.07086614173228346,-0.05511811023622047,-0.03937007874015748,-0.015748031496062992,-0.015748031496062992
5.69134521484375,-0.015748031496062992,-0.03937007874015748,-0.047244094488188976,-0.05511811023622047,-0.08661417322834646,0.03937007874015748,-0.023622047244094488,-0.007874015748031496
5.692299246788025,-0.023622047244094488,0.023622047244094488,-0.07086614173228346,-0.10236220472440945,0.5590551181102362,-0.1732283464566929,-0.07874015748031496,-0.05511811023622047
5.6932532787323,-0.007874015748031496,0.0,0.007874015748031496,-0.007874015748031496,-0.6614173228346457,0.15748031496062992,0.031496062992125984,-0.015748031496062992
5.693779706954956,0.023622047244094488,-0.015748031496062992,0.031496062992125984,0.2125984251968504,0.44881889763779526,0.16535433070866143,0.08661417322834646,0.031496062992125984
5.694306135177612,0.09448818897637795,-0.031496062992125984,0.05511811023622047,0.1732283464566929,0.4094488188976378,0.11023622047244094,0.08661417322834646,0.047244094488188976
5.694500207901001,0.0,-0.047244094488188976,0.06299212598425197,-0.007874015748031496,-0.2204724409448819,-0.11811023622047244,0.0,0.031496062992125984
5.69469428062439,-0.05511811023622047,-0.031496062992125984,-0.047244094488188976,-0.13385826771653545,-0.047244094488188976,-0.1968503937007874,-0.08661417322834646,-0.007874015748031496
5.695071220397949,-0.047244094488188976,0.007874015748031496,-0.11023622047244094,-0.18110236220472442,-0.23622047244094488,-0.10236220472440945,-0.08661417322834646,-0.09448818897637795
5.695448160171509,-0.05511811023622047,0.031496062992125984,-0.015748031496062992,-0.015748031496062992,-0.007874015748031496,0.07874015748031496,0.007874015748031496,-0.031496062992125984
5.695626258850098,0.015748031496062992,-0.06299212598425197,0.015748031496062992,0.12598425196850394,0.11023622047244094,0.06299212598425197,0.023622047244094488,0.0
5.6958043575286865,-0.07874015748031496,0.0,0.007874015748031496,-0.11023622047244094,0.09448818897637795,-0.07086614173228346,-0.015748031496062992,-0.023622047244094488
5.696318745613098,0.007874015748031496,-0.03937007874015748,-0.03937007874015748,0.023622047244094488,-0.23622047244094488,-0.007874015748031496,-0.023622047244094488,-0.007874015748031496
5.69683313369751,0.007874015748031496,0.015748031496062992,-0.03937007874015748,-0.015748031496062992,0.14960629921259844,-0.05511811023622047,-0.007874015748031496,-0.015748031496062992
5.697049140930176,-0.031496062992125984,-0.05511811023622047,-0.023622047244094488,0.023622047244094488,-0.14173228346456693,0.07086614173228346,0.023622047244094488,0.0
5.697265148162842,0.047244094488188976,-0.007874015748031496,-0.007874015748031496,-0.07086614173228346,0.047244094488188976,-0.031496062992125984,0.015748031496062992,0.015748031496062992
5.697698593139648,-0.11811023622047244,0.015748031496062992,-0.015748031496062992,-0.03937007874015748,0.16535433070866143,-0.09448818897637795,-0.06299212598425197,-0.031496062992125984
5.698132038116455,0.015748031496062992,-0.015748031496062992,-0.07086614173228346,-0.10236220472440945,-0.4881889763779528,-0.13385826771653545,-0.03937007874015748,-0.031496062992125984
5.69835102558136,-0.007874015748031496,0.023622047244094488,0.03937007874015748,0.07086614173228346,0.06299212598425197,0.2047244094488189,0.05511811023622047,0.007874015748031496
5.698570013046265,0.047244094488188976,-0.031496062992125984,0.031496062992125984,0.1968503937007874,0.3228346456692913,0.13385826771653545,0.03937007874015748,0.015748031496062992
5.698902130126953,0.031496062992125984,-0.015748031496062992,0.05511811023622047,0.031496062992125984,0.11811023622047244,0.03937007874015748,0.023622047244094488,0.015748031496062992
5.699234247207642,-0.015748031496062992,0.0,0.007874015748031496,-0.11811023622047244,-0.10236220472440945,-0.09448818897637795,-0.023622047244094488,-0.015748031496062992
5.6994322538375854,-0.023622047244094488,0.023622047244094488,-0.05511811023622047,-0.047244094488188976,-0.15748031496062992,-0.07086614173228346,-0.047244094488188976,-0.03937007874015748
5.699630260467529,-0.007874015748031496,-0.047244094488188976,-0.05511811023622047,-0.05511811023622047,-0.047244094488188976,-0.11023622047244094,-0.031496062992125984,-0.007874015748031496
5.699942708015442,-0.007874015748031496,0.031496062992125984,0.0,-0.015748031496062992,-0.10236220472440945,-0.031496062992125984,-0.015748031496062992,-0.015748031496062992
5.7002551555633545,-0.015748031496062992,-0.047244094488188976,-0.03937007874015748,-0.015748031496062992,0.031496062992125984,-0.015748031496062992,-0.015748031496062992,-0.023622047244094488
5.700445652008057,0.023622047244094488,0.03937007874015748,0.031496062992125984,0.015748031496062992,0.015748031496062992,0.07874015748031496,0.0,0.0
5.700636148452759,-0.007874015748031496,0.015748031496062992,0.0,0.06299212598425197,0.12598425196850394,0.015748031496062992,0.007874015748031496,0.0
5.700849175453186,0.007874015748031496,-0.06299212598425197,0.007874015748031496,-0.03937007874015748,-0.10236220472440945,-0.023622047244094488,0.007874015748031496,0.015748031496062992
5.701062202453613,-0.015748031496062992,-0.031496062992125984,-0.007874015748031496,-0.015748031496062992,-0.023622047244094488,-0.015748031496062992,-0.047244094488188976,-0.007874015748031496
5.701170086860657,-0.031496062992125984,0.03937007874015748,-0.03937007874015748,-0.11023622047244094,-0.2755905511811024,-0.09448818897637795,-0.03937007874015748,-0.023622047244094488
5.7012779712677,-0.023622047244094488,-0.03937007874015748,0.0,0.05511811023622047,-0.06299212598425197,-0.023622047244094488,0.007874015748031496,-0.015748031496062992
5.701563596725464,0.0,0.015748031496062992,0.0,0.047244094488188976,0.23622047244094488,-0.007874015748031496,-0.007874015748031496,-0.015748031496062992
5.7018492221832275,0.015748031496062992,0.0,0.047244094488188976,0.11023622047244094,0.047244094488188976,0.14173228346456693,0.07086614173228346,0.015748031496062992
5.702041745185852,0.0,-0.05511811023622047,0.0,-0.015748031496062992,0.047244094488188976,0.07086614173228346,0.023622047244094488,0.015748031496062992
5.702234268188477,-0.015748031496062992,-0.007874015748031496,-0.03937007874015748,-0.11023622047244094,0.15748031496062992,-0.08661417322834646,-0.047244094488188976,-0.015748031496062992
5.702590227127075,0.007874015748031496,0.0,0.007874015748031496,0.047244094488188976,-0.3779527559055118,0.015748031496062992,0.015748031496062992,-0.007874015748031496
5.702946186065674,0.0,-0.023622047244094488,0.015748031496062992,0.047244094488188976,0.2755905511811024,-0.007874015748031496,-0.007874015748031496,-0.007874015748031496
5.703099608421326,-0.007874015748031496,0.0,-0.007874015748031496,-0.03937007874015748,-0.11023622047244094,-0.047244094488188976,-0.007874015748031496,0.0
5.7032530307769775,-0.007874015748031496,0.007874015748031496,-0.05511811023622047,-0.14173228346456693,-0.023622047244094488,0.03937007874015748,-0.007874015748031496,-0.007874015748031496
5.7035441398620605,-0.007874015748031496,0.047244094488188976,-0.023622047244094488,0.03937007874015748,0.11811023622047244,-0.023622047244094488,-0.015748031496062992,-0.007874015748031496
5.7038352489471436,0.0,-0.015748031496062992,0.007874015748031496,0.07086614173228346,0.0,-0.023622047244094488,0.0,0.0
5.703950643539429,0.0,0.0,0.03937007874015748,0.07086614173228346,-0.031496062992125984,-0.031496062992125984,0.0,-0.007874015748031496
5.704066038131714,-0.015748031496062992,0.031496062992125984,0.031496062992125984,0.0,-0.047244094488188976,-0.031496062992125984,-0.03937007874015748,-0.031496062992125984
5.704361081123352,-0.023622047244094488,-0.047244094488188976,-0.07086614173228346,-0.16535433070866143,-0.06299212598425197,-0.015748031496062992,-0.023622047244094488,-0.015748031496062992
5.70465612411499,-0.031496062992125984,0.023622047244094488,-0.047244094488188976,-0.08661417322834646,-0.10236220472440945,-0.031496062992125984,-0.047244094488188976,-0.023622047244094488
5.704806685447693,-0.015748031496062992,-0.007874015748031496,0.0,0.07874015748031496,0.07086614173228346,0.015748031496062992,-0.007874015748031496,-0.007874015748031496
5.7049572467803955,-0.015748031496062992,-0.015748031496062992,0.031496062992125984,0.07874015748031496,-0.047244094488188976,0.015748031496062992,0.0,-0.007874015748031496
5.705179691314697,0.015748031496062992,0.07086614173228346,-0.015748031496062992,-0.07874015748031496,0.18110236220472442,0.0,0.0,0.0
5.705402135848999,0.0,-0.11811023622047244,0.031496062992125984,0.06299212598425197,-0.14173228346456693,-0.023622047244094488,0.0,0.007874015748031496
5.705497145652771,-0.007874015748031496,-0.047244094488188976,-0.023622047244094488,-0.06299212598425197,0.16535433070866143,0.015748031496062992,0.007874015748031496,-0.007874015748031496
5.705592155456543,0.0,0.007874015748031496,0.031496062992125984,0.031496062992125984,-0.09448818897637795,-0.023622047244094488,0.0,0.0
5.705890655517578,-0.007874015748031496,-0.07086614173228346,-0.031496062992125984,-0.09448818897637795,-0.1968503937007874,0.007874015748031496,-0.015748031496062992,0.0
5.706189155578613,0.0,0.047244094488188976,-0.031496062992125984,-0.015748031496062992,0.03937007874015748,0.031496062992125984,0.007874015748031496,0.0
5.706367254257202,-0.007874015748031496,0.015748031496062992,0.023622047244094488,0.09448818897637795,0.09448818897637795,0.015748031496062992,0.0,0.007874015748031496
5.706545352935791,-0.015748031496062992,-0.023622047244094488,-0.03937007874015748,-0.031496062992125984,0.10236220472440945,-0.03937007874015748,-0.023622047244094488,-0.007874015748031496
5.7068986892700195,-0.007874015748031496,-0.007874015748031496,0.03937007874015748,-0.023622047244094488,-0.15748031496062992,0.007874015748031496,0.023622047244094488,0.0
5.707252025604248,-0.023622047244094488,-0.023622047244094488,-0.07874015748031496,-0.06299212598425197,0.09448818897637795,-0.007874015748031496,-0.023622047244094488,-0.023622047244094488
5.707353591918945,0.0,0.07874015748031496,0.11811023622047244,0.047244094488188976,-0.10236220472440945,-0.031496062992125984,-0.007874015748031496,-0.015748031496062992
5.707455158233643,-0.007874015748031496,-0.16535433070866143,-0.031496062992125984,0.007874015748031496,0.05511811023622047,0.015748031496062992,-0.023622047244094488,-0.007874015748031496
5.707689642906189,-0.031496062992125984,-0.05511811023622047,-0.03937007874015748,-0.07874015748031496,-0.08661417322834646,-0.06299212598425197,-0.03937007874015748,-0.031496062992125984
5.707924127578735,0.0,0.05511811023622047,-0.03937007874015748,-0.07086614173228346,-0.023622047244094488,0.007874015748031496,-0.031496062992125984,-0.015748031496062992
5.708019256591797,-0.015748031496062992,0.0,-0.023622047244094488,0.031496062992125984,0.007874015748031496,-0.047244094488188976,-0.015748031496062992,-0.015748031496062992
5.708114385604858,0.0,0.047244094488188976,0.023622047244094488,0.07086614173228346,-0.031496062992125984,-0.03937007874015748,-0.023622047244094488,-0.007874015748031496
5.7083446979522705,0.015748031496062992,0.0,0.015748031496062992,0.031496062992125984,0.14173228346456693,0.047244094488188976,0.015748031496062992,0.007874015748031496
5.708575010299683,0.015748031496062992,-0.031496062992125984,0.015748031496062992,0.007874015748031496,0.015748031496062992,0.023622047244094488,0.015748031496062992,0.0
5.708677053451538,-0.015748031496062992,-0.015748031496062992,-0.08661417322834646,-0.047244094488188976,-0.06299212598425197,-0.05511811023622047,-0.007874015748031496,-0.015748031496062992
5.7087790966033936,-0.015748031496062992,-0.015748031496062992,-0.007874015748031496,-0.05511811023622047,-0.11811023622047244,-0.007874015748031496,-0.015748031496062992,-0.007874015748031496
5.709005117416382,-0.023622047244094488,0.007874015748031496,0.007874015748031496,0.03937007874015748,-0.007874015748031496,-0.031496062992125984,-0.023622047244094488,-0.023622047244094488
5.70923113822937,0.007874015748031496,0.031496062992125984,-0.015748031496062992,0.023622047244094488,0.047244094488188976,0.0,0.015748031496062992,-0.007874015748031496
5.709396719932556,0.007874015748031496,0.015748031496062992,-0.015748031496062992,-0.09448818897637795,0.3700787401574803,-0.007874015748031496,-0.007874015748031496,0.007874015748031496
5.709562301635742,0.0,-0.023622047244094488,-0.015748031496062992,0.023622047244094488,-0.4881889763779528,-0.007874015748031496,-0.015748031496062992,-0.007874015748031496
5.709865212440491,-0.03937007874015748,-0.03937007874015748,-0.007874015748031496,0.03937007874015748,0.10236220472440945,0.0,0.0,-0.015748031496062992
5.710168123245239,0.0,-0.023622047244094488,-0.007874015748031496,0.007874015748031496,0.03937007874015748,-0.015748031496062992,0.015748031496062992,0.0
5.710305571556091,-0.07874015748031496,-0.031496062992125984,-0.023622047244094488,-0.06299212598425197,-0.10236220472440945,-0.031496062992125984,0.0,-0.015748031496062992
5.710443019866943,0.031496062992125984,0.007874015748031496,-0.031496062992125984,-0.031496062992125984,0.2047244094488189,0.07086614173228346,0.007874015748031496,-0.007874015748031496
5.710676670074463,0.015748031496062992,-0.007874015748031496,0.0,-0.023622047244094488,-0.07874015748031496,-0.07874015748031496,-0.015748031496062992,-0.007874015748031496
5.710910320281982,-0.007874015748031496,-0.015748031496062992,0.023622047244094488,-0.007874015748031496,-0.10236220472440945,-0.10236220472440945,-0.06299212598425197,-0.023622047244094488
5.711006283760071,0.0,-0.007874015748031496,-0.023622047244094488,-0.023622047244094488,-0.09448818897637795,0.03937007874015748,0.007874015748031496,-0.023622047244094488
5.711102247238159,-0.015748031496062992,0.08661417322834646,0.031496062992125984,0.07874015748031496,0.2047244094488189,-0.03937007874015748,0.007874015748031496,0.0
5.711337208747864,0.0,0.03937007874015748,0.031496062992125984,0.07086614173228346,-0.1968503937007874,0.047244094488188976,-0.007874015748031496,-0.007874015748031496
5.711572170257568,-0.031496062992125984,-0.031496062992125984,-0.015748031496062992,-0.07874015748031496,0.2204724409448819,0.07086614173228346,0.031496062992125984,0.0
5.711680173873901,0.015748031496062992,-0.031496062992125984,-0.023622047244094488,-0.03937007874015748,0.007874015748031496,-0.015748031496062992,0.0,0.007874015748031496
5.711788177490234,-0.015748031496062992,0.03937007874015748,-0.023622047244094488,0.0,-0.16535433070866143,-0.11811023622047244,-0.03937007874015748,-0.015748031496062992
5.711989641189575,-0.015748031496062992,-0.047244094488188976,-0.10236220472440945,-0.16535433070866143,-0.23622047244094488,-0.015748031496062992,-0.007874015748031496,0.0
5.712191104888916,-0.007874015748031496,-0.007874015748031496,0.023622047244094488,0.047244094488188976,0.047244094488188976,0.015748031496062992,-0.015748031496062992,-0.015748031496062992
5.712321639060974,0.007874015748031496,-0.03937007874015748,0.015748031496062992,0.15748031496062992,0.14960629921259844,-0.047244094488188976,-0.007874015748031496,0.0
5.712452173233032,0.023622047244094488,-0.007874015748031496,0.031496062992125984,-0.03937007874015748,0.06299212598425197,0.11811023622047244,0.023622047244094488,0.007874015748031496
5.71272075176239,-0.023622047244094488,-0.007874015748031496,0.015748031496062992,0.06299212598425197,0.10236220472440945,-0.015748031496062992,0.0,0.0
5.712989330291748,-0.015748031496062992,0.007874015748031496,-0.07086614173228346,-0.08661417322834646,-0.15748031496062992,-0.05511811023622047,-0.015748031496062992,-0.015748031496062992
5.713088274002075,0.007874015748031496,-0.023622047244094488,-0.015748031496062992,-0.09448818897637795,-0.09448818897637795,-0.023622047244094488,-0.023622047244094488,-0.007874015748031496
5.713187217712402,-0.03937007874015748,-0.015748031496062992,0.031496062992125984,0.05511811023622047,0.06299212598425197,-0.023622047244094488,-0.031496062992125984,-0.031496062992125984
5.713399648666382,-0.007874015748031496,0.0,0.023622047244094488,0.03937007874015748,-0.023622047244094488,-0.007874015748031496,-0.015748031496062992,-0.015748031496062992
5.713612079620361,-0.007874015748031496,0.015748031496062992,-0.06299212598425197,-0.06299212598425197,0.03937007874015748,-0.007874015748031496,0.0,-0.007874015748031496
5.713767647743225,0.007874015748031496,-0.015748031496062992,0.015748031496062992,0.08661417322834646,-0.05511811023622047,-0.023622047244094488,0.0,0.007874015748031496
5.713923215866089,-0.015748031496062992,-0.031496062992125984,-0.06299212598425197,-0.09448818897637795,-0.11023622047244094,0.015748031496062992,-0.007874015748031496,0.0
5.714030146598816,0.015748031496062992,-0.007874015748031496,0.03937007874015748,0.07874015748031496,0.11811023622047244,-0.007874015748031496,0.0,0.0
5.714137077331543,-0.023622047244094488,0.0,0.0,0.03937007874015748,0.05511811023622047,0.023622047244094488,-0.007874015748031496,-0.015748031496062992
5.714436650276184,0.007874015748031496,0.015748031496062992,-0.007874015748031496,0.05511811023622047,0.14173228346456693,0.023622047244094488,0.007874015748031496,0.0
5.714736223220825,-0.015748031496062992,-0.023622047244094488,0.0,-0.03937007874015748,-0.007874015748031496,-0.023622047244094488,-0.007874015748031496,-0.007874015748031496
5.714993715286255,0.0,0.007874015748031496,-0.03937007874015748,-0.047244094488188976,-0.13385826771653545,0.0,-0.031496062992125984,0.0
5.715251207351685,-0.023622047244094488,-0.007874015748031496,0.07086614173228346,0.07874015748031496,0.4645669291338583,0.07086614173228346,0.0,-0.015748031496062992
5.715352296829224,0.007874015748031496,-0.023622047244094488,0.047244094488188976,0.023622047244094488,-0.4094488188976378,0.015748031496062992,0.023622047244094488,-0.007874015748031496
5.715453386306763,0.015748031496062992,-0.03937007874015748,-0.13385826771653545,-0.11023622047244094,-0.03937007874015748,0.007874015748031496,0.03937007874015748,0.031496062992125984
5.7157193422317505,-0.007874015748031496,-0.007874015748031496,0.12598425196850394,0.06299212598425197,0.13385826771653545,-0.07874015748031496,-0.023622047244094488,0.007874015748031496
5.715985298156738,-0.023622047244094488,-0.031496062992125984,-0.07874015748031496,-0.1732283464566929,-0.2204724409448819,-0.015748031496062992,-0.015748031496062992,-0.015748031496062992
5.716148734092712,-0.015748031496062992,-0.007874015748031496,-0.03937007874015748,-0.03937007874015748,0.12598425196850394,-0.015748031496062992,-0.047244094488188976,-0.031496062992125984
5.7163121700286865,-0.015748031496062992,0.015748031496062992,0.015748031496062992,-0.05511811023622047,-0.09448818897637795,-0.031496062992125984,-0.031496062992125984,-0.015748031496062992
5.71669614315033,-0.015748031496062992,0.0,-0.031496062992125984,-0.023622047244094488,-0.07086614173228346,-0.015748031496062992,0.0,-0.015748031496062992
5.717080116271973,0.007874015748031496,0.007874015748031496,-0.015748031496062992,0.13385826771653545,0.13385826771653545,0.015748031496062992,0.007874015748031496,0.0
5.71720016002655,-0.015748031496062992,-0.023622047244094488,-0.015748031496062992,0.007874015748031496,0.10236220472440945,0.03937007874015748,-0.015748031496062992,0.0
5.717320203781128,-0.007874015748031496,-0.007874015748031496,0.05511811023622047,-0.07086614173228346,-0.023622047244094488,-0.03937007874015748,-0.023622047244094488,-0.015748031496062992
5.717688202857971,0.0,-0.015748031496062992,-0.03937007874015748,-0.047244094488188976,-0.28346456692913385,-0.10236220472440945,-0.031496062992125984,-0.007874015748031496
5.7180562019348145,-0.015748031496062992,-0.015748031496062992,-0.007874015748031496,-0.023622047244094488,-0.13385826771653545,0.023622047244094488,-0.023622047244094488,-0.023622047244094488
5.718218207359314,-0.007874015748031496,0.0,0.0,0.10236220472440945,0.41732283464566927,0.06299212598425197,0.0,0.0
5.7183802127838135,0.015748031496062992,-0.023622047244094488,0.03937007874015748,0.12598425196850394,-0.15748031496062992,-0.007874015748031496,0.031496062992125984,0.015748031496062992
5.718644738197327,-0.007874015748031496,-0.015748031496062992,0.007874015748031496,-0.015748031496062992,0.14960629921259844,0.047244094488188976,0.0,-0.007874015748031496
5.71890926361084,0.007874015748031496,-0.031496062992125984,-0.03937007874015748,0.05511811023622047,-0.047244094488188976,-0.015748031496062992,0.031496062992125984,0.007874015748031496
5.719021677970886,0.0,0.007874015748031496,0.03937007874015748,-0.03937007874015748,-0.11811023622047244,-0.03937007874015748,-0.015748031496062992,0.007874015748031496
5.719134092330933,-0.015748031496062992,-0.007874015748031496,-0.07874015748031496,-0.06299212598425197,0.023622047244094488,0.007874015748031496,-0.023622047244094488,-0.023622047244094488
5.719398617744446,-0.007874015748031496,-0.007874015748031496,-0.03937007874015748,-0.11023622047244094,-0.031496062992125984,-0.015748031496062992,-0.023622047244094488,-0.015748031496062992
5.719663143157959,-0.007874015748031496,-0.023622047244094488,-0.07086614173228346,-0.007874015748031496,-0.06299212598425197,-0.015748031496062992,-0.031496062992125984,-0.007874015748031496
5.71976363658905,0.007874015748031496,0.007874015748031496,0.05511811023622047,-0.023622047244094488,0.08661417322834646,-0.03937007874015748,0.0,-0.023622047244094488
5.719864130020142,0.007874015748031496,0.007874015748031496,-0.023622047244094488,0.05511811023622047,-0.10236220472440945,-0.03937007874015748,-0.023622047244094488,0.0
5.720106244087219,0.0,0.0,0.023622047244094488,-0.03937007874015748,-0.07874015748031496,-0.007874015748031496,0.0,0.0
5.720348358154297,-0.015748031496062992,0.0,-0.047244094488188976,0.015748031496062992,0.023622047244094488,0.0,-0.015748031496062992,-0.007874015748031496
5.720511794090271,-0.007874015748031496,-0.007874015748031496,-0.023622047244094488,0.06299212598425197,0.07874015748031496,0.031496062992125984,0.0,0.0
5.720675230026245,-0.031496062992125984,-0.015748031496062992,-0.023622047244094488,-0.07874015748031496,0.015748031496062992,0.007874015748031496,0.0,-0.015748031496062992
5.720963716506958,-0.007874015748031496,-0.007874015748031496,-0.047244094488188976,0.047244094488188976,0.0,0.007874015748031496,0.0,-0.015748031496062992
5.721252202987671,0.007874015748031496,0.0,0.007874015748031496,-0.08661417322834646,-0.09448818897637795,-0.07086614173228346,0.0,0.007874015748031496
5.721430659294128,0.0,-0.015748031496062992,0.015748031496062992,-0.031496062992125984,-0.06299212598425197,-0.06299212598425197,0.0,0.0
5.721609115600586,-0.007874015748031496,0.0,0.07874015748031496,0.08661417322834646,0.05511811023622047,0.047244094488188976,0.007874015748031496,0.015748031496062992
5.721904635429382,-0.007874015748031496,0.007874015748031496,0.0,-0.047244094488188976,0.11811023622047244,0.08661417322834646,0.007874015748031496,-0.007874015748031496
5.722200155258179,-0.007874015748031496,-0.031496062992125984,0.015748031496062992,0.047244094488188976,0.031496062992125984,-0.007874015748031496,0.0,-0.015748031496062992
5.722325682640076,-0.015748031496062992,-0.023622047244094488,-0.11023622047244094,-0.07874015748031496,-0.14960629921259844,-0.031496062992125984,-0.03937007874015748,-0.007874015748031496
5.722451210021973,-0.023622047244094488,-0.007874015748031496,-0.015748031496062992,-0.05511811023622047,-0.06299212598425197,-0.047244094488188976,-0.031496062992125984,-0.023622047244094488
5.722829699516296,0.0,0.007874015748031496,0.007874015748031496,0.07086614173228346,0.10236220472440945,0.015748031496062992,0.023622047244094488,0.007874015748031496
5.72320818901062,0.0,0.015748031496062992,-0.1889763779527559,0.031496062992125984,0.06299212598425197,0.047244094488188976,0.015748031496062992,0.007874015748031496
5.723383784294128,0.007874015748031496,-0.015748031496062992,0.11811023622047244,-0.06299212598425197,-0.023622047244094488,0.007874015748031496,0.023622047244094488,0.0
5.723559379577637,-0.007874015748031496,-0.007874015748031496,-0.05511811023622047,0.007874015748031496,0.007874015748031496,0.0,-0.007874015748031496,-0.007874015748031496
5.723883748054504,-0.007874015748031496,0.007874015748031496,0.07086614173228346,0.06299212598425197,-0.023622047244094488,-0.031496062992125984,-0.031496062992125984,-0.007874015748031496
5.724208116531372,-0.023622047244094488,-0.015748031496062992,0.07874015748031496,-0.14173228346456693,-0.09448818897637795,-0.047244094488188976,-0.03937007874015748,-0.031496062992125984
5.7244555950164795,-0.023622047244094488,0.007874015748031496,-0.03937007874015748,0.03937007874015748,-0.2283464566929134,-0.015748031496062992,-0.007874015748031496,-0.031496062992125984
5.724703073501587,0.015748031496062992,0.007874015748031496,0.05511811023622047,-0.06299212598425197,0.07874015748031496,0.023622047244094488,0.007874015748031496,-0.007874015748031496
5.725052118301392,-0.007874015748031496,-0.05511811023622047,-0.23622047244094488,-0.07874015748031496,-0.031496062992125984,0.0,0.0,0.0
5.725401163101196,0.015748031496062992,0.007874015748031496,0.08661417322834646,0.047244094488188976,0.08661417322834646,-0.015748031496062992,-0.007874015748031496,0.007874015748031496
5.725500583648682,-0.007874015748031496,-0.015748031496062992,-0.031496062992125984,-0.03937007874015748,0.007874015748031496,-0.07874015748031496,-0.023622047244094488,-0.015748031496062992
5.725600004196167,-0.015748031496062992,-0.015748031496062992,-0.007874015748031496,-0.023622047244094488,-0.14960629921259844,-0.015748031496062992,-0.023622047244094488,-0.015748031496062992
5.725854158401489,0.0,0.023622047244094488,-0.047244094488188976,0.11811023622047244,0.11811023622047244,0.07086614173228346,0.0,-0.015748031496062992
5.7261083126068115,0.0,-0.007874015748031496,0.05511811023622047,-0.06299212598425197,0.031496062992125984,0.0,0.0,0.007874015748031496
5.726211667060852,-0.007874015748031496,-0.015748031496062992,-0.023622047244094488,0.05511811023622047,0.12598425196850394,0.047244094488188976,0.007874015748031496,0.007874015748031496
5.726315021514893,0.007874015748031496,0.0,0.05511811023622047,0.023622047244094488,0.08661417322834646,0.031496062992125984,0.007874015748031496,0.0
5.726547122001648,-0.023622047244094488,-0.007874015748031496,0.015748031496062992,-0.07874015748031496,-0.07874015748031496,-0.08661417322834646,-0.031496062992125984,-0.007874015748031496
5.726779222488403,-0.015748031496062992,0.0,-0.031496062992125984,-0.047244094488188976,-0.11023622047244094,0.015748031496062992,-0.023622047244094488,-0.031496062992125984
5.726897716522217,0.007874015748031496,0.015748031496062992,0.0,0.007874015748031496,-0.14173228346456693,-0.08661417322834646,-0.007874015748031496,0.0
5.72701621055603,-0.015748031496062992,0.023622047244094488,0.0,0.07086614173228346,0.07874015748031496,-0.031496062992125984,-0.007874015748031496,-0.007874015748031496
5.727274179458618,-0.007874015748031496,-0.015748031496062992,-0.03937007874015748,-0.07086614173228346,-0.015748031496062992,-0.047244094488188976,0.007874015748031496,0.0
5.727532148361206,-0.007874015748031496,-0.015748031496062992,0.03937007874015748,0.031496062992125984,-0.10236220472440945,0.047244094488188976,-0.031496062992125984,-0.007874015748031496
5.727648615837097,-0.007874015748031496,-0.031496062992125984,-0.031496062992125984,-0.07874015748031496,0.09448818897637795,0.047244094488188976,0.007874015748031496,-0.007874015748031496
5.727765083312988,0.0,-0.007874015748031496,-0.023622047244094488,0.047244094488188976,-0.11023622047244094,-0.015748031496062992,-0.023622047244094488,-0.007874015748031496
5.728050112724304,-0.007874015748031496,-0.007874015748031496,0.047244094488188976,0.007874015748031496,-0.07874015748031496,-0.031496062992125984,0.007874015748031496,0.0
5.72833514213562,-0.007874015748031496,0.007874015748031496,-0.015748031496062992,-0.047244094488188976,0.1968503937007874,-0.12598425196850394,-0.047244094488188976,-0.015748031496062992
5.728463172912598,-0.015748031496062992,0.007874015748031496,-0.07874015748031496,0.007874015748031496,-0.15748031496062992,0.05511811023622047,-0.031496062992125984,-0.031496062992125984
5.728591203689575,-0.007874015748031496,-0.015748031496062992,0.08661417322834646,-0.03937007874015748,0.06299212598425197,0.031496062992125984,-0.031496062992125984,-0.007874015748031496
5.728917717933655,0.007874015748031496,0.023622047244094488,0.10236220472440945,0.07874015748031496,0.08661417322834646,0.07874015748031496,0.09448818897637795,0.031496062992125984
5.729244232177734,-0.007874015748031496,-0.03937007874015748,-0.06299212598425197,0.10236220472440945,0.13385826771653545,0.03937007874015748,0.03937007874015748,0.015748031496062992
5.729442238807678,0.0,-0.007874015748031496,-0.023622047244094488,-0.03937007874015748,0.03937007874015748,0.007874015748031496,-0.007874015748031496,0.0
5.729640245437622,-0.007874015748031496,-0.023622047244094488,-0.047244094488188976,-0.06299212598425197,-0.06299212598425197,-0.07086614173228346,-0.031496062992125984,-0.023622047244094488
5.730033278465271,-0.015748031496062992,-0.007874015748031496,-0.015748031496062992,-0.09448818897637795,-0.11023622047244094,-0.06299212598425197,-0.07086614173228346,-0.031496062992125984
5.73042631149292,0.007874015748031496,-0.007874015748031496,0.023622047244094488,-0.015748031496062992,-0.07874015748031496,-0.015748031496062992,0.0,-0.007874015748031496
5.73054563999176,-0.015748031496062992,0.0,-0.007874015748031496,0.06299212598425197,0.031496062992125984,0.0,-0.015748031496062992,-0.007874015748031496
5.730664968490601,-0.07086614173228346,0.007874015748031496,-0.023622047244094488,-0.03937007874015748,-0.047244094488188976,-0.023622047244094488,0.007874015748031496,-0.007874015748031496
5.730964541435242,0.007874015748031496,-0.023622047244094488,-0.031496062992125984,-0.07874015748031496,-0.047244094488188976,-0.031496062992125984,-0.023622047244094488,-0.023622047244094488
5.731264114379883,-0.007874015748031496,0.015748031496062992,0.047244094488188976,0.12598425196850394,-0.031496062992125984,0.0,0.015748031496062992,-0.007874015748031496
5.731455206871033,0.031496062992125984,0.03937007874015748,0.11811023622047244,-0.007874015748031496,0.10236220472440945,0.023622047244094488,0.0,0.007874015748031496
5.731646299362183,0.023622047244094488,-0.03937007874015748,-0.1968503937007874,0.07874015748031496,0.2125984251968504,0.03937007874015748,0.023622047244094488,0.0
5.731898188591003,-0.03937007874015748,-0.13385826771653545,-0.18110236220472442,-0.14960629921259844,-0.30708661417322836,-0.023622047244094488,-0.023622047244094488,-0.031496062992125984
5.732150077819824,-0.007874015748031496,0.0,0.031496062992125984,0.023622047244094488,-0.11811023622047244,-0.03937007874015748,-0.031496062992125984,-0.015748031496062992
5.732311129570007,-0.007874015748031496,-0.031496062992125984,-0.07086614173228346,-0.12598425196850394,-0.031496062992125984,-0.023622047244094488,-0.015748031496062992,-0.015748031496062992
5.73247218132019,0.007874015748031496,0.015748031496062992,0.07086614173228346,0.015748031496062992,0.023622047244094488,-0.023622047244094488,0.015748031496062992,0.007874015748031496
5.7328572273254395,0.007874015748031496,0.023622047244094488,0.007874015748031496,-0.015748031496062992,0.05511811023622047,-0.047244094488188976,-0.05511811023622047,-0.015748031496062992
5.7332422733306885,-0.031496062992125984,-0.023622047244094488,-0.06299212598425197,0.03937007874015748,-0.015748031496062992,0.015748031496062992,-0.023622047244094488,-0.031496062992125984
5.733418226242065,-0.007874015748031496,0.015748031496062992,0.07874015748031496,0.11023622047244094,-0.007874015748031496,0.031496062992125984,0.03937007874015748,0.015748031496062992
5.733594179153442,0.031496062992125984,0.0,0.023622047244094488,-0.047244094488188976,0.047244094488188976,0.03937007874015748,0.0,0.007874015748031496
5.733915686607361,-0.023622047244094488,-0.015748031496062992,-0.007874015748031496,0.007874015748031496,0.07086614173228346,0.023622047244094488,-0.007874015748031496,-0.015748031496062992
5.734237194061279,-0.06299212598425197,0.0,0.023622047244094488,-0.047244094488188976,-0.03937007874015748,-0.015748031496062992,-0.007874015748031496,0.007874015748031496
5.734398603439331,-0.007874015748031496,-0.023622047244094488,-0.07874015748031496,-0.03937007874015748,-0.10236220472440945,-0.11811023622047244,-0.031496062992125984,-0.031496062992125984
5.734560012817383,-0.023622047244094488,-0.015748031496062992,0.015748031496062992,0.023622047244094488,0.0,-0.06299212598425197,-0.03937007874015748,-0.031496062992125984
5.734893083572388,0.023622047244094488,0.031496062992125984,0.047244094488188976,0.03937007874015748,0.07874015748031496,0.07874015748031496,0.015748031496062992,0.015748031496062992
5.735226154327393,0.047244094488188976,0.015748031496062992,0.015748031496062992,0.031496062992125984,0.08661417322834646,0.07874015748031496,0.03937007874015748,0.007874015748031496
5.735344171524048,0.0,-0.023622047244094488,0.0,0.047244094488188976,0.047244094488188976,-0.023622047244094488,0.007874015748031496,0.007874015748031496
5.735462188720703,-0.07086614173228346,0.03937007874015748,0.0,-0.11811023622047244,-0.06299212598425197,0.031496062992125984,-0.007874015748031496,0.0
5.73567521572113,0.07086614173228346,0.015748031496062992,0.05511811023622047,0.03937007874015748,-0.14173228346456693,-0.03937007874015748,-0.03937007874015748,-0.031496062992125984
5.735888242721558,0.03937007874015748,-0.10236220472440945,-0.2677165354330709,-0.11023622047244094,-0.03937007874015748,-0.07874015748031496,-0.023622047244094488,-0.015748031496062992
5.736005783081055,-0.16535433070866143,-0.007874015748031496,0.015748031496062992,0.023622047244094488,0.047244094488188976,0.03937007874015748,0.03937007874015748,0.0
5.736123323440552,-0.06299212598425197,-0.08661417322834646,-0.015748031496062992,-0.031496062992125984,-0.023622047244094488,-0.023622047244094488,-0.015748031496062992,-0.023622047244094488
5.736464262008667,0.031496062992125984,0.031496062992125984,0.047244094488188976,0.023622047244094488,0.05511811023622047,-0.023622047244094488,-0.007874015748031496,-0.007874015748031496
5.736805200576782,-0.2755905511811024,0.015748031496062992,0.031496062992125984,-0.03937007874015748,-0.13385826771653545,-0.023622047244094488,-0.031496062992125984,-0.015748031496062992
5.736935615539551,0.10236220472440945,-0.007874015748031496,-0.05511811023622047,-0.03937007874015748,0.0,0.0,-0.023622047244094488,-0.031496062992125984
5.737066030502319,-0.015748031496062992,0.015748031496062992,-0.015748031496062992,0.0,0.1968503937007874,-0.03937007874015748,0.015748031496062992,0.015748031496062992
5.737315654754639,-0.03937007874015748,0.0,0.023622047244094488,0.05511811023622047,-0.12598425196850394,0.08661417322834646,0.0,-0.007874015748031496
5.737565279006958,-0.015748031496062992,-0.007874015748031496,0.015748031496062992,-0.08661417322834646,-0.12598425196850394,-0.05511811023622047,-0.007874015748031496,-0.023622047244094488
5.737831234931946,0.023622047244094488,-0.007874015748031496,-0.06299212598425197,-0.015748031496062992,0.047244094488188976,-0.031496062992125984,-0.031496062992125984,-0.015748031496062992
5.738097190856934,0.007874015748031496,0.007874015748031496,0.0,0.03937007874015748,0.09448818897637795,0.031496062992125984,0.023622047244094488,-0.007874015748031496
5.738226652145386,-0.031496062992125984,0.007874015748031496,0.015748031496062992,0.023622047244094488,0.07086614173228346,0.031496062992125984,-0.023622047244094488,-0.015748031496062992
5.738356113433838,0.07086614173228346,-0.007874015748031496,-0.06299212598425197,-0.031496062992125984,-0.13385826771653545,-0.11023622047244094,-0.023622047244094488,0.015748031496062992
5.738588094711304,-0.03937007874015748,-0.015748031496062992,-0.03937007874015748,-0.08661417322834646,-0.031496062992125984,-0.015748031496062992,-0.007874015748031496,-0.015748031496062992
5.7388200759887695,-0.031496062992125984,0.007874015748031496,0.05511811023622047,-0.031496062992125984,-0.1732283464566929,0.05511811023622047,0.031496062992125984,-0.015748031496062992
5.7389116287231445,0.015748031496062992,-0.007874015748031496,0.05511811023622047,0.03937007874015748,0.11023622047244094,0.015748031496062992,0.06299212598425197,0.023622047244094488
5.7390031814575195,0.015748031496062992,-0.07086614173228346,-0.14173228346456693,0.023622047244094488,-0.047244094488188976,0.007874015748031496,-0.11811023622047244,-0.03937007874015748
5.739278674125671,-0.03937007874015748,-0.023622047244094488,0.0,0.06299212598425197,0.10236220472440945,0.007874015748031496,0.007874015748031496,0.015748031496062992
5.739554166793823,0.0,0.0,-0.047244094488188976,-0.11811023622047244,-0.031496062992125984,-0.07874015748031496,-0.047244094488188976,-0.015748031496062992
5.739674687385559,0.03937007874015748,-0.015748031496062992,0.015748031496062992,-0.031496062992125984,0.07086614173228346,-0.07874015748031496,-0.05511811023622047,-0.047244094488188976
5.739795207977295,-0.05511811023622047,0.015748031496062992,0.11023622047244094,0.031496062992125984,-0.2125984251968504,0.03937007874015748,0.03937007874015748,-0.007874015748031496
5.740139722824097,0.0,-0.023622047244094488,-0.1968503937007874,0.031496062992125984,0.15748031496062992,0.007874015748031496,0.023622047244094488,0.007874015748031496
5.740484237670898,0.047244094488188976,0.007874015748031496,0.023622047244094488,0.031496062992125984,0.047244094488188976,0.023622047244094488,0.007874015748031496,0.0
5.740643739700317,0.007874015748031496,-0.023622047244094488,-0.12598425196850394,-0.03937007874015748,-0.07086614173228346,-0.03937007874015748,-0.007874015748031496,0.007874015748031496
5.740803241729736,0.0,-0.007874015748031496,0.13385826771653545,-0.08661417322834646,-0.047244094488188976,0.007874015748031496,0.007874015748031496,-0.007874015748031496
5.741085648536682,-0.015748031496062992,0.007874015748031496,0.05511811023622047,0.015748031496062992,0.07086614173228346,-0.015748031496062992,-0.031496062992125984,-0.007874015748031496
5.741368055343628,0.015748031496062992,0.0,-0.047244094488188976,-0.047244094488188976,-0.031496062992125984,-0.015748031496062992,0.007874015748031496,0.0
5.741470098495483,-0.031496062992125984,-0.007874015748031496,-0.11811023622047244,-0.05511811023622047,-0.07874015748031496,-0.007874015748031496,-0.031496062992125984,-0.047244094488188976
5.741572141647339,-0.015748031496062992,-0.007874015748031496,-0.047244094488188976,0.031496062992125984,0.031496062992125984,0.023622047244094488,0.0,0.0
5.74182915687561,-0.015748031496062992,-0.015748031496062992,0.07086614173228346,0.031496062992125984,-0.05511811023622047,-0.031496062992125984,0.03937007874015748,-0.007874015748031496
5.742086172103882,0.023622047244094488,0.007874015748031496,0.10236220472440945,0.047244094488188976,0.047244094488188976,0.0,0.0,0.0
5.7421886920928955,-0.023622047244094488,0.015748031496062992,-0.015748031496062992,-0.023622047244094488,-0.015748031496062992,0.007874015748031496,-0.023622047244094488,0.0
5.742291212081909,0.007874015748031496,-0.023622047244094488,-0.07086614173228346,0.007874015748031496,0.0,0.007874015748031496,-0.031496062992125984,-0.015748031496062992
5.742546796798706,0.015748031496062992,0.031496062992125984,0.06299212598425197,-0.05511811023622047,0.007874015748031496,0.0,0.023622047244094488,-0.007874015748031496
5.742802381515503,-0.007874015748031496,-0.047244094488188976,-0.15748031496062992,-0.023622047244094488,-0.13385826771653545,-0.007874015748031496,-0.007874015748031496,-0.007874015748031496
5.742902755737305,-0.023622047244094488,-0.023622047244094488,-0.08661417322834646,0.015748031496062992,-0.015748031496062992,0.03937007874015748,0.12598425196850394,0.007874015748031496
5.7430031299591064,0.05511811023622047,-0.015748031496062992,0.023622047244094488,0.047244094488188976,0.07086614173228346,0.03937007874015748,-0.07086614173228346,0.023622047244094488
5.743331670761108,-0.06299212598425197,-0.031496062992125984,-0.015748031496062992,-0.03937007874015748,0.03937007874015748,-0.023622047244094488,-0.03937007874015748,-0.015748031496062992
5.74366021156311,-0.06299212598425197,-0.007874015748031496,0.05511811023622047,-0.015748031496062992,-0.047244094488188976,-0.09448818897637795,-0.07086614173228346,-0.047244094488188976
5.743782162666321,0.023622047244094488,0.023622047244094488,0.07086614173228346,-0.023622047244094488,-0.10236220472440945,-0.015748031496062992,-0.07086614173228346,-0.015748031496062992
5.743904113769531,0.015748031496062992,0.015748031496062992,-0.09448818897637795,0.015748031496062992,0.12598425196850394,0.08661417322834646,0.11023622047244094,0.023622047244094488
5.744162678718567,0.023622047244094488,-0.05511811023622047,-0.023622047244094488,-0.015748031496062992,-0.023622047244094488,-0.031496062992125984,-0.015748031496062992,-0.007874015748031496
5.7444212436676025,0.0,0.0,0.047244094488188976,-0.023622047244094488,-0.07086614173228346,-0.047244094488188976,0.007874015748031496,0.0
5.744552731513977,-0.10236220472440945,-0.015748031496062992,-0.05511811023622047,-0.031496062992125984,-0.03937007874015748,-0.03937007874015748,-0.023622047244094488,-0.023622047244094488
5.744684219360352,0.015748031496062992,0.015748031496062992,0.0,0.05511811023622047,0.047244094488188976,0.031496062992125984,0.015748031496062992,-0.015748031496062992
5.744903206825256,-0.007874015748031496,-0.007874015748031496,0.11811023622047244,-0.05511811023622047,-0.015748031496062992,0.031496062992125984,-0.007874015748031496,-0.007874015748031496
5.745122194290161,0.015748031496062992,-0.023622047244094488,-0.07086614173228346,-0.031496062992125984,-0.007874015748031496,-0.015748031496062992,0.0,0.0
5.745239615440369,-0.031496062992125984,0.007874015748031496,0.07874015748031496,-0.06299212598425197,-0.07086614173228346,-0.05511811023622047,-0.047244094488188976,0.0
5.745357036590576,-0.031496062992125984,0.0,-0.015748031496062992,-0.03937007874015748,-0.047244094488188976,-0.06299212598425197,-0.031496062992125984,-0.03937007874015748
5.745686054229736,-0.015748031496062992,0.007874015748031496,-0.05511811023622047,0.047244094488188976,-0.031496062992125984,0.03937007874015748,0.007874015748031496,0.0
5.7460150718688965,0.047244094488188976,0.007874015748031496,0.03937007874015748,0.10236220472440945,0.031496062992125984,0.06299212598425197,0.007874015748031496,0.015748031496062992
5.746131181716919,0.03937007874015748,-0.015748031496062992,0.047244094488188976,0.047244094488188976,-0.023622047244094488,0.015748031496062992,0.015748031496062992,0.007874015748031496
5.746247291564941,-0.007874015748031496,-0.007874015748031496,0.13385826771653545,-0.07874015748031496,0.015748031496062992,-0.007874015748031496,0.023622047244094488,0.0
5.746484756469727,-0.015748031496062992,-0.031496062992125984,-0.12598425196850394,-0.05511811023622047,-0.07874015748031496,-0.031496062992125984,-0.023622047244094488,-0.007874015748031496
5.746722221374512,-0.015748031496062992,-0.015748031496062992,0.07874015748031496,0.007874015748031496,0.10236220472440945,0.007874015748031496,-0.03937007874015748,-0.007874015748031496
5.7468501329422,0.0,-0.007874015748031496,-0.11023622047244094,0.015748031496062992,0.07874015748031496,0.015748031496062992,-0.023622047244094488,-0.015748031496062992
5.746978044509888,-0.015748031496062992,-0.015748031496062992,-0.023622047244094488,-0.07086614173228346,-0.16535433070866143,-0.06299212598425197,0.023622047244094488,0.0
5.747204661369324,-0.007874015748031496,0.007874015748031496,0.015748031496062992,-0.031496062992125984,-0.047244094488188976,-0.06299212598425197,-0.031496062992125984,-0.007874015748031496
5.74743127822876,-0.015748031496062992,0.007874015748031496,-0.047244094488188976,0.05511811023622047,0.06299212598425197,0.0,-0.015748031496062992,-0.023622047244094488
5.747564792633057,0.015748031496062992,0.007874015748031496,-0.007874015748031496,0.007874015748031496,0.03937007874015748,-0.007874015748031496,0.10236220472440945,0.0
5.7476983070373535,0.015748031496062992,0.0,0.07874015748031496,-0.007874015748031496,-0.05511811023622047,0.007874015748031496,-0.07086614173228346,-0.007874015748031496
5.747938752174377,-0.007874015748031496,0.0,-0.14960629921259844,0.023622047244094488,0.07086614173228346,0.05511811023622047,0.015748031496062992,0.0
5.748179197311401,-0.007874015748031496,-0.007874015748031496,0.07874015748031496,0.0,0.031496062992125984,0.007874015748031496,-0.007874015748031496,0.007874015748031496
5.748277187347412,0.007874015748031496,-0.007874015748031496,0.05511811023622047,-0.11023622047244094,-0.08661417322834646,-0.03937007874015748,-0.031496062992125984,-0.015748031496062992
5.748375177383423,-0.031496062992125984,-0.023622047244094488,-0.14173228346456693,0.047244094488188976,0.03937007874015748,0.007874015748031496,0.0,-0.007874015748031496
5.748718738555908,-0.023622047244094488,0.007874015748031496,0.05511811023622047,0.015748031496062992,-0.06299212598425197,-0.08661417322834646,-0.023622047244094488,-0.007874015748031496
5.7490622997283936,0.0,0.007874015748031496,-0.031496062992125984,0.023622047244094488,0.30708661417322836,-0.047244094488188976,-0.015748031496062992,-0.015748031496062992
5.749299764633179,-0.007874015748031496,-0.031496062992125984,0.031496062992125984,-0.03937007874015748,-0.30708661417322836,0.031496062992125984,-0.015748031496062992,0.0
5.749537229537964,0.0,0.023622047244094488,-0.015748031496062992,0.007874015748031496,0.015748031496062992,0.023622047244094488,0.015748031496062992,0.0
5.749805212020874,0.0,0.0,-0.047244094488188976,-0.03937007874015748,-0.08661417322834646,-0.03937007874015748,-0.031496062992125984,-0.007874015748031496
5.750073194503784,-0.031496062992125984,-0.031496062992125984,0.007874015748031496,-0.007874015748031496,-0.023622047244094488,-0.07874015748031496,-0.031496062992125984,-0.05511811023622047
5.750186204910278,0.007874015748031496,-0.007874015748031496,-0.023622047244094488,-0.047244094488188976,0.14173228346456693,0.0,-0.023622047244094488,-0.007874015748031496
5.7502992153167725,-0.015748031496062992,-0.031496062992125984,-0.09448818897637795,0.03937007874015748,0.03937007874015748,0.06299212598425197,0.047244094488188976,0.007874015748031496
5.750707626342773,0.0,-0.007874015748031496,0.0,0.047244094488188976,0.031496062992125984,0.023622047244094488,0.015748031496062992,0.007874015748031496
5.751116037368774,-0.015748031496062992,-0.007874015748031496,0.18110236220472442,-0.07874015748031496,-0.06299212598425197,0.015748031496062992,-0.015748031496062992,-0.015748031496062992
5.751277565956116,0.023622047244094488,0.0,0.031496062992125984,0.13385826771653545,0.08661417322834646,0.015748031496062992,-0.007874015748031496,0.0
5.751439094543457,-0.023622047244094488,-0.007874015748031496,0.0,-0.031496062992125984,-0.07086614173228346,-0.03937007874015748,-0.047244094488188976,-0.031496062992125984
5.751699090003967,-0.023622047244094488,0.007874015748031496,0.023622047244094488,-0.047244094488188976,-0.05511811023622047,-0.08661417322834646,-0.03937007874015748,-0.031496062992125984
5.7519590854644775,-0.007874015748031496,0.007874015748031496,-0.12598425196850394,-0.07874015748031496,-0.03937007874015748,0.0,0.0,0.015748031496062992
5.752126097679138,-0.015748031496062992,-0.047244094488188976,-0.047244094488188976,-0.007874015748031496,0.031496062992125984,0.015748031496062992,0.0,0.007874015748031496
5.752293109893799,0.015748031496062992,-0.007874015748031496,0.007874015748031496,0.031496062992125984,0.031496062992125984,-0.047244094488188976,0.0,-0.007874015748031496
5.752565622329712,-0.015748031496062992,-0.007874015748031496,0.007874015748031496,0.0,-0.06299212598425197,0.023622047244094488,-0.007874015748031496,0.0
5.752838134765625,-0.015748031496062992,0.007874015748031496,0.03937007874015748,-0.007874015748031496,-0.06299212598425197,0.007874015748031496,-0.023622047244094488,-0.015748031496062992
5.752927660942078,0.0,0.023622047244094488,-0.047244094488188976,0.0,0.07086614173228346,-0.007874015748031496,-0.023622047244094488,0.0
5.75301718711853,-0.015748031496062992,0.007874015748031496,0.03937007874015748,0.05511811023622047,0.031496062992125984,-0.007874015748031496,-0.007874015748031496,0.0
5.753371238708496,-0.023622047244094488,-0.03937007874015748,0.007874015748031496,-0.11811023622047244,-0.07086614173228346,-0.03937007874015748,-0.007874015748031496,-0.007874015748031496
5.753725290298462,-0.007874015748031496,-0.007874015748031496,-0.1889763779527559,-0.031496062992125984,-0.031496062992125984,-0.023622047244094488,0.023622047244094488,0.0
5.753917336463928,-0.015748031496062992,-0.007874015748031496,0.2125984251968504,-0.023622047244094488,-0.18110236220472442,-0.031496062992125984,-0.03937007874015748,-0.023622047244094488
5.7541093826293945,0.0,0.0,0.007874015748031496,0.047244094488188976,-0.07874015748031496,-0.007874015748031496,0.015748031496062992,-0.007874015748031496
5.7544028759002686,0.015748031496062992,0.0,0.05511811023622047,0.06299212598425197,0.07086614173228346,0.07086614173228346,0.023622047244094488,0.0
5.754696369171143,0.03937007874015748,-0.023622047244094488,-0.09448818897637795,-0.05511811023622047,0.007874015748031496,0.015748031496062992,0.015748031496062992,0.007874015748031496
5.754861831665039,-0.047244094488188976,-0.015748031496062992,-0.10236220472440945,-0.007874015748031496,0.05511811023622047,-0.08661417322834646,-0.03937007874015748,-0.023622047244094488
5.7550272941589355,-0.015748031496062992,0.007874015748031496,-0.007874015748031496,-0.07086614173228346,-0.05511811023622047,-0.03937007874015748,-0.031496062992125984,-0.015748031496062992
5.755302786827087,0.0,0.0,-0.007874015748031496,0.007874015748031496,0.0,-0.007874015748031496,-0.007874015748031496,-0.007874015748031496
5.755578279495239,-0.007874015748031496,-0.03937007874015748,-0.03937007874015748,-0.031496062992125984,0.031496062992125984,0.031496062992125984,0.015748031496062992,-0.007874015748031496
5.755679249763489,0.03937007874015748,-0.007874015748031496,0.047244094488188976,0.13385826771653545,0.11023622047244094,0.047244094488188976,0.015748031496062992,0.0
5.755780220031738,-0.03937007874015748,-0.015748031496062992,0.0,-0.023622047244094488,-0.007874015748031496,0.0,0.015748031496062992,0.0
5.756006598472595,-0.015748031496062992,0.0,-0.007874015748031496,0.0,0.031496062992125984,-0.015748031496062992,0.0,-0.015748031496062992
5.756232976913452,0.0,-0.007874015748031496,-0.023622047244094488,-0.07874015748031496,-0.10236220472440945,-0.047244094488188976,0.03937007874015748,-0.031496062992125984
5.756332039833069,0.0,-0.007874015748031496,-0.03937007874015748,-0.10236220472440945,-0.14173228346456693,-0.023622047244094488,-0.07086614173228346,0.0
5.7564311027526855,-0.023622047244094488,-0.031496062992125984,-0.03937007874015748,-0.03937007874015748,0.015748031496062992,-0.05511811023622047,-0.10236220472440945,-0.047244094488188976
5.756692171096802,0.0,0.023622047244094488,-0.047244094488188976,0.07086614173228346,0.31496062992125984,0.06299212598425197,0.06299212598425197,0.015748031496062992
5.756953239440918,-0.015748031496062992,-0.015748031496062992,0.06299212598425197,0.09448818897637795,-0.18110236220472442,0.06299212598425197,-0.015748031496062992,0.0
5.757113218307495,0.0,-0.015748031496062992,-0.023622047244094488,-0.03937007874015748,0.015748031496062992,0.031496062992125984,0.07086614173228346,0.0
5.757273197174072,0.015748031496062992,0.0,0.0,-0.015748031496062992,-0.05511811023622047,-0.015748031496062992,0.015748031496062992,0.015748031496062992
5.7575507164001465,-0.007874015748031496,-0.023622047244094488,-0.007874015748031496,-0.031496062992125984,-0.007874015748031496,-0.06299212598425197,-0.05511811023622047,-0.007874015748031496
5.757828235626221,0.007874015748031496,-0.007874015748031496,-0.015748031496062992,-0.08661417322834646,-0.047244094488188976,-0.06299212598425197,-0.023622047244094488,-0.023622047244094488
5.758004665374756,-0.023622047244094488,0.0,-0.03937007874015748,0.03937007874015748,0.031496062992125984,-0.007874015748031496,-0.03937007874015748,-0.015748031496062992
5.758181095123291,-0.06299212598425197,-0.007874015748031496,-0.007874015748031496,-0.023622047244094488,0.031496062992125984,0.0,-0.007874015748031496,-0.023622047244094488
5.758389711380005,0.0,-0.015748031496062992,0.007874015748031496,0.015748031496062992,-0.031496062992125984,-0.031496062992125984,0.0,0.0
5.758598327636719,0.0,0.023622047244094488,-0.015748031496062992,0.05511811023622047,0.047244094488188976,0.07874015748031496,0.015748031496062992,0.03937007874015748
5.758747816085815,0.015748031496062992,-0.015748031496062992,-0.007874015748031496,0.007874015748031496,0.03937007874015748,0.031496062992125984,0.031496062992125984,-0.015748031496062992
5.758897304534912,0.015748031496062992,0.007874015748031496,0.03937007874015748,0.0,0.047244094488188976,-0.023622047244094488,0.0,-0.015748031496062992
5.759174823760986,-0.015748031496062992,-0.015748031496062992,-0.031496062992125984,-0.03937007874015748,-0.13385826771653545,-0.023622047244094488,-0.015748031496062992,-0.007874015748031496
5.7594523429870605,-0.015748031496062992,-0.015748031496062992,0.007874015748031496,-0.007874015748031496,-0.015748031496062992,-0.03937007874015748,-0.047244094488188976,-0.031496062992125984
5.759550213813782,-0.007874015748031496,0.0,-0.07874015748031496,-0.031496062992125984,0.03937007874015748,-0.03937007874015748,-0.023622047244094488,0.0
5.759648084640503,0.0,-0.015748031496062992,0.023622047244094488,-0.05511811023622047,-0.1889763779527559,-0.07874015748031496,-0.015748031496062992,-0.015748031496062992
5.759930610656738,0.007874015748031496,0.007874015748031496,0.047244094488188976,-0.047244094488188976,0.047244094488188976,-0.031496062992125984,-0.03937007874015748,-0.023622047244094488
5.760213136672974,-0.007874015748031496,-0.023622047244094488,0.023622047244094488,0.13385826771653545,0.05511811023622047,0.06299212598425197,0.031496062992125984,-0.015748031496062992
5.760327100753784,-0.023622047244094488,0.0,-0.047244094488188976,0.023622047244094488,0.06299212598425197,0.047244094488188976,0.0,-0.007874015748031496
5.760441064834595,0.015748031496062992,0.0,0.0,0.0,0.047244094488188976,0.031496062992125984,0.015748031496062992,0.007874015748031496
5.760702610015869,0.0,-0.023622047244094488,-0.023622047244094488,-0.047244094488188976,-0.09448818897637795,0.0,0.007874015748031496,0.0
5.7609641551971436,-0.007874015748031496,0.007874015748031496,0.0,-0.015748031496062992,-0.047244094488188976,-0.07086614173228346,-0.05511811023622047,0.007874015748031496
5.761066198348999,0.007874015748031496,-0.015748031496062992,-0.08661417322834646,-0.07086614173228346,-0.047244094488188976,-0.06299212598425197,-0.023622047244094488,-0.031496062992125984
5.7611682415008545,0.0,-0.007874015748031496,-0.023622047244094488,-0.047244094488188976,-0.047244094488188976,0.007874015748031496,0.08661417322834646,-0.015748031496062992
5.761440753936768,-0.023622047244094488,-0.015748031496062992,0.007874015748031496,0.007874015748031496,-0.031496062992125984,0.015748031496062992,-0.05511811023622047,-0.007874015748031496
5.761713266372681,0.0,0.0,-0.015748031496062992,0.031496062992125984,0.03937007874015748,-0.031496062992125984,-0.015748031496062992,-0.015748031496062992
5.7618666887283325,-0.015748031496062992,-0.007874015748031496,0.015748031496062992,0.031496062992125984,0.047244094488188976,0.05511811023622047,-0.007874015748031496,0.007874015748031496
5.762020111083984,-0.007874015748031496,-0.023622047244094488,-0.05511811023622047,-0.047244094488188976,0.007874015748031496,-0.015748031496062992,-0.05511811023622047,-0.015748031496062992
5.762292146682739,-0.015748031496062992,-0.015748031496062992,-0.015748031496062992,0.007874015748031496,-0.023622047244094488,-0.007874015748031496,0.03937007874015748,-0.007874015748031496
5.762564182281494,-0.023622047244094488,-0.023622047244094488,-0.015748031496062992,-0.023622047244094488,-0.05511811023622047,-0.03937007874015748,0.007874015748031496,0.0
5.762723207473755,0.007874015748031496,-0.007874015748031496,0.015748031496062992,-0.03937007874015748,-0.07086614173228346,-0.06299212598425197,-0.031496062992125984,0.007874015748031496
5.762882232666016,-0.007874015748031496,0.0,-0.14173228346456693,0.023622047244094488,0.06299212598425197,0.031496062992125984,0.0,-0.007874015748031496
5.763136267662048,-0.007874015748031496,-0.015748031496062992,0.07874015748031496,0.015748031496062992,0.015748031496062992,0.031496062992125984,0.007874015748031496,0.0
5.763390302658081,-0.023622047244094488,-0.007874015748031496,0.047244094488188976,-0.023622047244094488,-0.03937007874015748,-0.031496062992125984,-0.047244094488188976,-0.007874015748031496
5.7635252475738525,-0.015748031496062992,-0.015748031496062992,0.015748031496062992,-0.047244094488188976,-0.031496062992125984,-0.023622047244094488,-0.007874015748031496,-0.023622047244094488
5.763660192489624,0.007874015748031496,0.0,-0.007874015748031496,0.015748031496062992,-0.015748031496062992,-0.023622047244094488,0.0,-0.007874015748031496
5.763925075531006,0.007874015748031496,0.007874015748031496,-0.07086614173228346,-0.047244094488188976,0.10236220472440945,-0.03937007874015748,-0.023622047244094488,0.0
5.764189958572388,-0.015748031496062992,0.0,-0.07874015748031496,-0.14173228346456693,-0.41732283464566927,-0.12598425196850394,-0.047244094488188976,-0.031496062992125984
5.764286518096924,-0.023622047244094488,0.0,0.03937007874015748,0.13385826771653545,0.05511811023622047,0.10236220472440945,0.015748031496062992,-0.031496062992125984
5.76438307762146,0.015748031496062992,0.007874015748031496,0.007874015748031496,0.11023622047244094,0.2047244094488189,0.11023622047244094,0.03937007874015748,0.007874015748031496
5.764628529548645,0.0,-0.007874015748031496,-0.007874015748031496,0.03937007874015748,0.0,0.031496062992125984,0.015748031496062992,-0.007874015748031496
5.76487398147583,-0.023622047244094488,-0.031496062992125984,0.03937007874015748,-0.047244094488188976,0.09448818897637795,-0.015748031496062992,-0.031496062992125984,-0.007874015748031496
5.764967560768127,-0.023622047244094488,-0.023622047244094488,0.031496062992125984,-0.08661417322834646,-0.14173228346456693,-0.15748031496062992,-0.03937007874015748,-0.007874015748031496
5.765061140060425,-0.023622047244094488,0.0,0.007874015748031496,0.023622047244094488,-0.11811023622047244,0.0,-0.047244094488188976,-0.031496062992125984
5.765339136123657,0.0,-0.007874015748031496,-0.023622047244094488,0.015748031496062992,0.16535433070866143,0.06299212598425197,0.05511811023622047,-0.007874015748031496
5.76561713218689,0.007874015748031496,0.0,-0.023622047244094488,0.0,0.09448818897637795,0.031496062992125984,-0.007874015748031496,-0.007874015748031496
5.7657105922698975,0.0,-0.007874015748031496,-0.07086614173228346,-0.023622047244094488,-0.07874015748031496,-0.05511811023622047,-0.023622047244094488,-0.007874015748031496
5.765804052352905,-0.015748031496062992,0.0,-0.03937007874015748,-0.06299212598425197,-0.047244094488188976,-0.047244094488188976,-0.023622047244094488,-0.015748031496062992
5.766104102134705,-0.03937007874015748,-0.023622047244094488,0.0,-0.007874015748031496,-0.10236220472440945,-0.03937007874015748,-0.023622047244094488,-0.015748031496062992
5.766404151916504,-0.023622047244094488,0.0,-0.023622047244094488,-0.007874015748031496,0.2440944881889764,0.0,0.007874015748031496,-0.015748031496062992
5.766550183296204,0.0,0.0,-0.015748031496062992,-0.023622047244094488,-0.28346456692913385,0.0,-0.015748031496062992,-0.015748031496062992
5.766696214675903,0.03937007874015748,0.0,0.0,0.13385826771653545,0.07086614173228346,0.023622047244094488,0.015748031496062992,0.015748031496062992
5.766987204551697,0.0,-0.007874015748031496,0.023622047244094488,0.015748031496062992,0.015748031496062992,0.007874015748031496,0.015748031496062992,0.007874015748031496
5.76727819442749,-0.023622047244094488,-0.015748031496062992,0.047244094488188976,0.03937007874015748,0.007874015748031496,0.0,0.015748031496062992,-0.015748031496062992
5.767407774925232,-0.047244094488188976,-0.023622047244094488,-0.07086614173228346,-0.08661417322834646,0.10236220472440945,-0.015748031496062992,0.007874015748031496,-0.015748031496062992
5.767537355422974,-0.023622047244094488,-0.015748031496062992,-0.06299212598425197,-0.08661417322834646,-0.05511811023622047,-0.015748031496062992,-0.023622047244094488,-0.015748031496062992
5.767912268638611,-0.015748031496062992,-0.007874015748031496,0.0,-0.031496062992125984,-0.12598425196850394,-0.047244094488188976,-0.023622047244094488,-0.023622047244094488
5.768287181854248,0.007874015748031496,-0.015748031496062992,-0.07086614173228346,0.023622047244094488,0.031496062992125984,-0.007874015748031496,-0.007874015748031496,0.015748031496062992
5.768412709236145,-0.015748031496062992,0.015748031496062992,0.015748031496062992,0.031496062992125984,0.023622047244094488,-0.007874015748031496,-0.007874015748031496,-0.015748031496062992
5.768538236618042,0.007874015748031496,-0.007874015748031496,-0.007874015748031496,-0.015748031496062992,-0.05511811023622047,-0.015748031496062992,-0.031496062992125984,-0.015748031496062992
5.768746733665466,-0.007874015748031496,0.0,-0.07086614173228346,0.0,0.031496062992125984,-0.031496062992125984,-0.007874015748031496,-0.015748031496062992
5.768955230712891,-0.015748031496062992,-0.007874015748031496,0.047244094488188976,-0.047244094488188976,-0.09448818897637795,-0.007874015748031496,0.0,0.0
5.769086122512817,0.0,0.0,-0.023622047244094488,-0.007874015748031496,-0.015748031496062992,-0.015748031496062992,-0.007874015748031496,-0.007874015748031496
5.769217014312744,-0.007874015748031496,0.0,0.015748031496062992,0.023622047244094488,0.06299212598425197,-0.03937007874015748,-0.007874015748031496,0.015748031496062992
5.76943051815033,0.0,0.0,0.03937007874015748,0.023622047244094488,0.047244094488188976,0.03937007874015748,0.007874015748031496,0.007874015748031496
5.769644021987915,-0.007874015748031496,-0.015748031496062992,-0.03937007874015748,-0.015748031496062992,-0.031496062992125984,0.031496062992125984,0.0,-0.015748031496062992
5.7697460651397705,0.023622047244094488,-0.015748031496062992,0.0,-0.015748031496062992,0.031496062992125984,-0.007874015748031496,0.015748031496062992,0.0
5.769848108291626,-0.015748031496062992,-0.007874015748031496,0.015748031496062992,0.023622047244094488,0.031496062992125984,0.007874015748031496,-0.031496062992125984,-0.023622047244094488
5.770188093185425,-0.015748031496062992,0.015748031496062992,0.0,-0.031496062992125984,-0.06299212598425197,-0.023622047244094488,-0.015748031496062992,-0.015748031496062992
5.770528078079224,0.007874015748031496,0.0,-0.05511811023622047,0.047244094488188976,-0.03937007874015748,-0.007874015748031496,-0.007874015748031496,-0.015748031496062992
5.770620584487915,0.007874015748031496,0.007874015748031496,0.0,-0.047244094488188976,0.007874015748031496,-0.06299212598425197,-0.031496062992125984,0.0
5.7707130908966064,-0.05511811023622047,-0.031496062992125984,-0.10236220472440945,-0.18110236220472442,-0.05511811023622047,-0.10236220472440945,-0.07086614173228346,-0.031496062992125984
5.770929574966431,-0.015748031496062992,-0.015748031496062992,-0.023622047244094488,0.03937007874015748,-0.2047244094488189,-0.007874015748031496,-0.023622047244094488,-0.023622047244094488
5.771146059036255,0.007874015748031496,-0.015748031496062992,0.05511811023622047,0.13385826771653545,0.25196850393700787,0.07086614173228346,0.031496062992125984,0.007874015748031496
5.771285057067871,0.023622047244094488,-0.007874015748031496,0.047244094488188976,0.09448818897637795,0.14173228346456693,0.13385826771653545,0.03937007874015748,0.023622047244094488
5.771424055099487,0.007874015748031496,0.0,0.031496062992125984,0.06299212598425197,0.023622047244094488,0.007874015748031496,-0.007874015748031496,0.015748031496062992
5.771703124046326,0.0,-0.015748031496062992,-0.047244094488188976,-0.2283464566929134,-0.11811023622047244,-0.09448818897637795,-0.015748031496062992,-0.007874015748031496
5.771982192993164,-0.023622047244094488,0.007874015748031496,0.05511811023622047,-0.047244094488188976,-0.06299212598425197,-0.023622047244094488,-0.007874015748031496,-0.015748031496062992
5.772079706192017,-0.015748031496062992,0.0,0.031496062992125984,0.05511811023622047,0.031496062992125984,-0.015748031496062992,0.0,-0.007874015748031496
5.772177219390869,-0.007874015748031496,-0.031496062992125984,-0.023622047244094488,-0.10236220472440945,-0.047244094488188976,0.0,-0.015748031496062992,-0.015748031496062992
5.77238917350769,-0.007874015748031496,-0.015748031496062992,-0.07874015748031496,0.031496062992125984,-0.007874015748031496,-0.023622047244094488,-0.047244094488188976,-0.015748031496062992
5.772601127624512,0.0,-0.015748031496062992,-0.015748031496062992,-0.08661417322834646,-0.14173228346456693,-0.05511811023622047,-0.03937007874015748,-0.015748031496062992
5.772761106491089,-0.015748031496062992,0.0,0.0,0.015748031496062992,0.0,-0.03937007874015748,-0.023622047244094488,-0.023622047244094488
5.772921085357666,0.0,0.015748031496062992,0.007874015748031496,0.03937007874015748,0.031496062992125984,0.023622047244094488,0.015748031496062992,0.007874015748031496
5.7731640338897705,0.015748031496062992,0.0,0.023622047244094488,0.07086614173228346,0.11023622047244094,0.047244094488188976,0.031496062992125984,0.015748031496062992
5.773406982421875,-0.015748031496062992,-0.015748031496062992,-0.007874015748031496,-0.03937007874015748,-0.007874015748031496,0.0,-0.007874015748031496,0.0
5.773500084877014,0.0,-0.03937007874015748,-0.03937007874015748,-0.023622047244094488,-0.047244094488188976,-0.015748031496062992,-0.023622047244094488,-0.007874015748031496
5.773593187332153,-0.007874015748031496,-0.015748031496062992,0.007874015748031496,0.0,-0.023622047244094488,0.0,-0.007874015748031496,-0.015748031496062992
5.773893237113953,-0.007874015748031496,-0.03937007874015748,-0.09448818897637795,0.007874015748031496,-0.007874015748031496,-0.047244094488188976,-0.007874015748031496,-0.007874015748031496
5.774193286895752,-0.007874015748031496,0.0,0.09448818897637795,0.007874015748031496,-0.015748031496062992,0.015748031496062992,-0.007874015748031496,0.0
5.774308204650879,-0.023622047244094488,-0.007874015748031496,0.007874015748031496,-0.031496062992125984,-0.007874015748031496,-0.007874015748031496,-0.007874015748031496,-0.015748031496062992
5.774423122406006,0.0,-0.015748031496062992,-0.023622047244094488,-0.023622047244094488,-0.015748031496062992,-0.015748031496062992,-0.015748031496062992,-0.007874015748031496
5.774669647216797,-0.015748031496062992,-0.007874015748031496,0.007874015748031496,-0.023622047244094488,-0.031496062992125984,-0.05511811023622047,-0.023622047244094488,-0.015748031496062992
5.774916172027588,-0.015748031496062992,0.0,-0.10236220472440945,-0.015748031496062992,-0.06299212598425197,-0.015748031496062992,-0.015748031496062992,-0.023622047244094488
5.7751041650772095,-0.007874015748031496,0.0,0.10236220472440945,0.023622047244094488,0.03937007874015748,0.0,0.023622047244094488,-0.007874015748031496
5.775292158126831,0.0,-0.023622047244094488,-0.03937007874015748,0.047244094488188976,0.06299212598425197,0.03937007874015748,0.031496062992125984,0.023622047244094488
5.775537729263306,0.0,-0.007874015748031496,0.031496062992125984,0.023622047244094488,0.14960629921259844,0.047244094488188976,0.007874015748031496,-0.023622047244094488
5.77578330039978,-0.007874015748031496,-0.007874015748031496,-0.06299212598425197,-0.06299212598425197,-0.14960629921259844,-0.03937007874015748,-0.015748031496062992,0.0
5.775944709777832,-0.015748031496062992,0.0,-0.031496062992125984,-0.023622047244094488,-0.03937007874015748,-0.03937007874015748,-0.031496062992125984,-0.015748031496062992
5.776106119155884,0.0,0.007874015748031496,0.03937007874015748,-0.023622047244094488,-0.03937007874015748,-0.007874015748031496,-0.007874015748031496,0.0
5.776445150375366,-0.023622047244094488,-0.015748031496062992,0.007874015748031496,-0.015748031496062992,-0.023622047244094488,-0.015748031496062992,-0.015748031496062992,-0.007874015748031496
5.776784181594849,0.0,0.0,-0.015748031496062992,0.03937007874015748,0.03937007874015748,-0.007874015748031496,0.0,0.0
5.776902675628662,-0.007874015748031496,-0.015748031496062992,-0.031496062992125984,-0.015748031496062992,0.015748031496062992,0.0,0.0,-0.007874015748031496
5.777021169662476,0.0,0.007874015748031496,-0.015748031496062992,-0.015748031496062992,-0.03937007874015748,-0.007874015748031496,-0.015748031496062992,-0.007874015748031496
5.777218699455261,-0.007874015748031496,-0.007874015748031496,-0.015748031496062992,-0.023622047244094488,-0.015748031496062992,-0.015748031496062992,-0.031496062992125984,-0.023622047244094488
5.777416229248047,-0.023622047244094488,-0.007874015748031496,-0.015748031496062992,-0.007874015748031496,-0.047244094488188976,0.0,-0.015748031496062992,-0.007874015748031496
5.777527213096619,-0.007874015748031496,-0.007874015748031496,-0.007874015748031496,-0.047244094488188976,-0.03937007874015748,-0.015748031496062992,0.0,-0.015748031496062992
5.77763819694519,0.007874015748031496,0.007874015748031496,-0.015748031496062992,0.023622047244094488,0.07086614173228346,0.023622047244094488,0.0,0.0
5.777875185012817,-0.007874015748031496,-0.031496062992125984,-0.015748031496062992,0.023622047244094488,0.023622047244094488,0.015748031496062992,0.007874015748031496,0.007874015748031496
5.778112173080444,0.007874015748031496,0.0,-0.023622047244094488,0.015748031496062992,0.015748031496062992,-0.031496062992125984,-0.023622047244094488,-0.007874015748031496
5.7782450914382935,-0.007874015748031496,-0.015748031496062992,-0.047244094488188976,-0.03937007874015748,-0.07086614173228346,-0.03937007874015748,-0.031496062992125984,-0.015748031496062992
5.778378009796143,-0.023622047244094488,-0.015748031496062992,-0.07874015748031496,-0.11023622047244094,-0.031496062992125984,0.015748031496062992,0.023622047244094488,0.0
5.778594613075256,-0.015748031496062992,-0.007874015748031496,0.015748031496062992,0.031496062992125984,0.023622047244094488,0.031496062992125984,0.007874015748031496,0.0
5.77881121635437,0.0,-0.007874015748031496,0.0,0.007874015748031496,0.031496062992125984,-0.015748031496062992,0.007874015748031496,0.007874015748031496
5.778901696205139,-0.007874015748031496,0.0,0.0,0.0,-0.015748031496062992,-0.031496062992125984,-0.015748031496062992,-0.007874015748031496
5.778992176055908,-0.007874015748031496,0.015748031496062992,0.007874015748031496,0.015748031496062992,-0.03937007874015748,-0.03937007874015748,-0.015748031496062992,-0.007874015748031496
5.779277086257935,-0.015748031496062992,0.031496062992125984,0.015748031496062992,-0.03937007874015748,-0.05511811023622047,0.0,-0.007874015748031496,-0.015748031496062992
5.779561996459961,-0.015748031496062992,-0.03937007874015748,-0.07086614173228346,-0.05511811023622047,-0.03937007874015748,-0.023622047244094488,-0.007874015748031496,-0.015748031496062992
5.779797554016113,-0.007874015748031496,0.0,-0.015748031496062992,0.015748031496062992,0.05511811023622047,0.0,-0.015748031496062992,0.015748031496062992
5.780033111572266,-0.007874015748031496,0.0,-0.007874015748031496,-0.023622047244094488,-0.007874015748031496,-0.007874015748031496,-0.015748031496062992,-0.007874015748031496
5.7801326513290405,-0.007874015748031496,-0.015748031496062992,-0.047244094488188976,-0.03937007874015748,-0.047244094488188976,-0.023622047244094488,0.0,-0.007874015748031496
5.780232191085815,-0.015748031496062992,0.0,-0.007874015748031496,0.0,-0.031496062992125984,-0.031496062992125984,-0.023622047244094488,-0.007874015748031496
5.780492663383484,0.0,0.0,0.023622047244094488,-0.015748031496062992,-0.031496062992125984,-0.007874015748031496,-0.015748031496062992,0.0
5.780753135681152,-0.007874015748031496,-0.007874015748031496,0.007874015748031496,-0.015748031496062992,0.007874015748031496,-0.015748031496062992,0.007874015748031496,0.0
5.78086519241333,0.0,-0.031496062992125984,-0.031496062992125984,0.0,0.007874015748031496,-0.007874015748031496,-0.015748031496062992,-0.015748031496062992
5.780977249145508,0.0,0.007874015748031496,0.031496062992125984,-0.007874015748031496,-0.015748031496062992,-0.007874015748031496,-0.007874015748031496,-0.015748031496062992
5.781216740608215,0.0,0.0,0.0,-0.007874015748031496,-0.007874015748031496,0.0,0.007874015748031496,0.007874015748031496
5.781456232070923,-0.015748031496062992,-0.007874015748031496,0.0,-0.015748031496062992,0.007874015748031496,0.007874015748031496,0.0,-0.015748031496062992
5.781590223312378,-0.007874015748031496,-0.015748031496062992,0.007874015748031496,0.0,-0.007874015748031496,-0.015748031496062992,-0.007874015748031496,-0.007874015748031496
5.781724214553833,-0.015748031496062992,-0.023622047244094488,0.0,0.0,-0.023622047244094488,-0.031496062992125984,-0.015748031496062992,-0.015748031496062992
5.782005667686462,0.0,0.0,-0.015748031496062992,-0.047244094488188976,-0.007874015748031496,0.0,-0.007874015748031496,-0.015748031496062992
5.782287120819092,-0.015748031496062992,0.007874015748031496,0.031496062992125984,0.047244094488188976,0.015748031496062992,-0.007874015748031496,-0.015748031496062992,0.007874015748031496
5.782403588294983,-0.015748031496062992,-0.023622047244094488,-0.07874015748031496,-0.10236220472440945,-0.031496062992125984,0.0,-0.007874015748031496,-0.015748031496062992
5.782520055770874,0.007874015748031496,-0.023622047244094488,-0.031496062992125984,0.015748031496062992,-0.007874015748031496,0.0,0.0,-0.015748031496062992
5.782736539840698,-0.007874015748031496,-0.023622047244094488,-0.007874015748031496,-0.047244094488188976,-0.023622047244094488,-0.023622047244094488,-0.015748031496062992,-0.015748031496062992
5.7829530239105225,0.0,0.015748031496062992,0.0,0.05511811023622047,0.0,-0.015748031496062992,0.0,-0.007874015748031496
5.783072590827942,-0.007874015748031496,-0.047244094488188976,-0.05511811023622047,-0.11811023622047244,-0.11023622047244094,-0.031496062992125984,-0.023622047244094488,0.0
5.783192157745361,-0.023622047244094488,0.0,-0.007874015748031496,0.015748031496062992,0.023622047244094488,-0.007874015748031496,0.0,-0.007874015748031496
5.783432126045227,0.0,-0.007874015748031496,0.015748031496062992,0.031496062992125984,0.031496062992125984,0.0,0.0,0.0
5.783672094345093,-0.007874015748031496,-0.007874015748031496,-0.03937007874015748,0.0,0.007874015748031496,-0.007874015748031496,0.0,-0.007874015748031496
5.783770680427551,0.0,0.015748031496062992,0.031496062992125984,0.031496062992125984,0.007874015748031496,0.007874015748031496,-0.007874015748031496,0.0
5.78386926651001,-0.023622047244094488,0.0,0.007874015748031496,-0.06299212598425197,-0.07086614173228346,-0.023622047244094488,-0.015748031496062992,-0.023622047244094488
5.784105181694031,-0.007874015748031496,-0.007874015748031496,-0.023622047244094488,0.015748031496062992,-0.07874015748031496,-0.031496062992125984,0.007874015748031496,-0.015748031496062992
5.784341096878052,-0.007874015748031496,-0.007874015748031496,0.015748031496062992,-0.007874015748031496,0.07874015748031496,0.023622047244094488,0.0,-0.007874015748031496
5.784507155418396,-0.015748031496062992,-0.015748031496062992,0.007874015748031496,0.03937007874015748,0.03937007874015748,0.0,0.0,0.0
5.78467321395874,0.0,-0.023622047244094488,-0.015748031496062992,-0.047244094488188976,-0.007874015748031496,0.0,-0.015748031496062992,-0.015748031496062992
5.784909248352051,-0.007874015748031496,-0.007874015748031496,-0.007874015748031496,-0.007874015748031496,0.0,0.0,-0.007874015748031496,0.0
5.785145282745361,-0.007874015748031496,-0.023622047244094488,-0.031496062992125984,-0.06299212598425197,-0.08661417322834646,-0.03937007874015748,-0.007874015748031496,-0.015748031496062992
5.785271644592285,0.007874015748031496,0.007874015748031496,-0.007874015748031496,0.007874015748031496,0.015748031496062992,-0.007874015748031496,-0.007874015748031496,-0.015748031496062992
5.785398006439209,-0.015748031496062992,0.007874015748031496,-0.015748031496062992,0.03937007874015748,0.06299212598425197,0.031496062992125984,-0.023622047244094488,-0.007874015748031496
5.785626530647278,-0.015748031496062992,0.0,0.015748031496062992,0.023622047244094488,0.03937007874015748,0.031496062992125984,-0.007874015748031496,-0.007874015748031496
5.785855054855347,0.0,-0.015748031496062992,0.0,0.031496062992125984,-0.023622047244094488,-0.015748031496062992,-0.007874015748031496,-0.015748031496062992
5.785954117774963,-0.015748031496062992,-0.015748031496062992,-0.007874015748031496,-0.023622047244094488,-0.015748031496062992,-0.031496062992125984,-0.007874015748031496,-0.007874015748031496
5.78605318069458,-0.007874015748031496,0.0,0.0,-0.023622047244094488,-0.07086614173228346,-0.03937007874015748,0.0,0.0
5.7862937450408936,-0.015748031496062992,-0.015748031496062992,-0.007874015748031496,-0.007874015748031496,0.007874015748031496,0.015748031496062992,-0.007874015748031496,-0.007874015748031496
5.786534309387207,0.0,-0.007874015748031496,0.007874015748031496,-0.03937007874015748,0.0,-0.007874015748031496,-0.007874015748031496,-0.007874015748031496
5.78663170337677,0.0,-0.007874015748031496,-0.06299212598425197,0.05511811023622047,-0.015748031496062992,-0.007874015748031496,0.0,-0.015748031496062992
5.786729097366333,-0.007874015748031496,0.0,0.0,-0.023622047244094488,-0.023622047244094488,-0.015748031496062992,-0.015748031496062992,0.0
5.786932587623596,-0.007874015748031496,-0.015748031496062992,-0.015748031496062992,-0.015748031496062992,-0.015748031496062992,-0.007874015748031496,0.0,-0.007874015748031496
5.787136077880859,0.0,0.0,0.023622047244094488,0.023622047244094488,0.0,0.0,-0.007874015748031496,-0.023622047244094488
5.787262678146362,-0.015748031496062992,-0.007874015748031496,0.023622047244094488,-0.07086614173228346,-0.08661417322834646,-0.023622047244094488,-0.015748031496062992,-0.007874015748031496
5.787389278411865,-0.007874015748031496,0.0,0.015748031496062992,0.06299212598425197,-0.08661417322834646,0.0,-0.015748031496062992,-0.023622047244094488
5.7876046895980835,-0.007874015748031496,-0.015748031496062992,-0.05511811023622047,-0.03937007874015748,0.08661417322834646,0.031496062992125984,0.007874015748031496,-0.007874015748031496
5.787820100784302,0.0,-0.015748031496062992,-0.007874015748031496,0.07086614173228346,0.05511811023622047,0.031496062992125984,0.023622047244094488,0.0
5.787922620773315,0.0,0.007874015748031496,0.03937007874015748,0.047244094488188976,0.031496062992125984,0.007874015748031496,0.0,-0.015748031496062992
5.788025140762329,-0.007874015748031496,-0.023622047244094488,-0.007874015748031496,-0.06299212598425197,-0.015748031496062992,-0.031496062992125984,-0.007874015748031496,0.0
5.788272738456726,-0.007874015748031496,0.007874015748031496,0.07086614173228346,0.03937007874015748,-0.08661417322834646,-0.047244094488188976,-0.023622047244094488,0.0
5.788520336151123,0.0,0.007874015748031496,-0.08661417322834646,-0.06299212598425197,-0.047244094488188976,-0.023622047244094488,-0.007874015748031496,0.0
5.788628697395325,-0.023622047244094488,-0.06299212598425197,-0.05511811023622047,-0.031496062992125984,0.007874015748031496,-0.031496062992125984,-0.023622047244094488,-0.015748031496062992
5.788737058639526,-0.023622047244094488,-0.03937007874015748,-0.031496062992125984,0.015748031496062992,-0.015748031496062992,-0.023622047244094488,0.0,-0.007874015748031496
5.789048075675964,0.015748031496062992,0.015748031496062992,0.023622047244094488,0.0,-0.031496062992125984,-0.007874015748031496,-0.023622047244094488,-0.007874015748031496
5.789359092712402,-0.007874015748031496,0.015748031496062992,0.015748031496062992,0.007874015748031496,0.023622047244094488,0.0,-0.007874015748031496,-0.007874015748031496
5.789577603340149,-0.007874015748031496,-0.11811023622047244,0.031496062992125984,0.007874015748031496,-0.007874015748031496,0.0,-0.015748031496062992,0.007874015748031496
5.7897961139678955,-0.023622047244094488,-0.031496062992125984,-0.023622047244094488,0.007874015748031496,-0.007874015748031496,-0.007874015748031496,0.0,-0.007874015748031496
5.7900002002716064,-0.007874015748031496,0.007874015748031496,-0.031496062992125984,0.0,0.0,0.007874015748031496,0.007874015748031496,0.0
5.790204286575317,0.0,-0.031496062992125984,-0.015748031496062992,0.007874015748031496,0.015748031496062992,0.0,0.007874015748031496,-0.015748031496062992
5.7904791831970215,0.0,-0.015748031496062992,-0.007874015748031496,-0.06299212598425197,-0.023622047244094488,-0.015748031496062992,-0.015748031496062992,-0.007874015748031496
5.790754079818726,0.0,0.047244094488188976,0.16535433070866143,0.015748031496062992,-0.031496062992125984,-0.023622047244094488,-0.023622047244094488,-0.007874015748031496
5.7908852100372314,0.015748031496062992,0.03937007874015748,0.08661417322834646,0.023622047244094488,0.023622047244094488,0.007874015748031496,0.0,-0.007874015748031496
5.791016340255737,-0.007874015748031496,-0.07086614173228346,-0.29133858267716534,-0.07874015748031496,0.015748031496062992,-0.007874015748031496,0.0,0.0
5.791277289390564,-0.015748031496062992,0.015748031496062992,0.023622047244094488,0.007874015748031496,-0.023622047244094488,-0.023622047244094488,-0.007874015748031496,-0.023622047244094488
5.791538238525391,-0.007874015748031496,-0.031496062992125984,-0.023622047244094488,0.03937007874015748,-0.023622047244094488,-0.007874015748031496,-0.007874015748031496,-0.007874015748031496
5.79163122177124,-0.015748031496062992,0.023622047244094488,0.031496062992125984,-0.03937007874015748,0.015748031496062992,0.023622047244094488,-0.007874015748031496,-0.007874015748031496
5.79172420501709,0.0,-0.007874015748031496,0.031496062992125984,-0.03937007874015748,-0.015748031496062992,-0.007874015748031496,-0.015748031496062992,-0.007874015748031496
5.79192316532135,0.0,-0.03937007874015748,-0.07086614173228346,-0.08661417322834646,-0.023622047244094488,-0.023622047244094488,-0.007874015748031496,-0.015748031496062992
5.79212212562561,-0.015748031496062992,0.007874015748031496,-0.05511811023622047,-0.07086614173228346,-0.031496062992125984,-0.023622047244094488,-0.007874015748031496,-0.007874015748031496
5.792212128639221,-0.023622047244094488,0.031496062992125984,0.08661417322834646,0.11811023622047244,0.007874015748031496,0.0,0.0,-0.015748031496062992
5.792302131652832,0.015748031496062992,0.031496062992125984,0.0,-0.09448818897637795,-0.047244094488188976,-0.015748031496062992,-0.007874015748031496,0.015748031496062992
5.792394638061523,-0.007874015748031496,0.007874015748031496,-0.023622047244094488,-0.06299212598425197,-0.031496062992125984,-0.007874015748031496,0.0,0.0
5.792487144470215,0.0,-0.047244094488188976,-0.015748031496062992,0.047244094488188976,0.0,-0.007874015748031496,-0.015748031496062992,-0.007874015748031496
5.792776107788086,0.0,-0.023622047244094488,0.0,-0.015748031496062992,-0.015748031496062992,-0.007874015748031496,-0.015748031496062992,-0.007874015748031496
5.793065071105957,-0.007874015748031496,-0.047244094488188976,0.0,-0.06299212598425197,0.0,-0.015748031496062992,-0.007874015748031496,-0.007874015748031496
5.793187141418457,-0.031496062992125984,-0.015748031496062992,-0.06299212598425197,-0.015748031496062992,-0.007874015748031496,-0.007874015748031496,0.0,-0.007874015748031496
5.793309211730957,0.0,-0.015748031496062992,0.06299212598425197,0.03937007874015748,0.007874015748031496,0.0,0.0,-0.007874015748031496
5.793512582778931,-0.007874015748031496,-0.031496062992125984,0.015748031496062992,0.023622047244094488,-0.031496062992125984,-0.023622047244094488,0.0,0.0
5.793715953826904,0.007874015748031496,0.03937007874015748,-0.03937007874015748,-0.031496062992125984,0.007874015748031496,-0.007874015748031496,-0.007874015748031496,0.0
5.793828010559082,-0.015748031496062992,-0.023622047244094488,0.023622047244094488,-0.031496062992125984,-0.03937007874015748,-0.015748031496062992,-0.015748031496062992,0.0
5.79394006729126,-0.015748031496062992,-0.023622047244094488,-0.007874015748031496,0.015748031496062992,0.007874015748031496,0.007874015748031496,0.0,-0.007874015748031496
5.794142127037048,0.0,0.007874015748031496,0.03937007874015748,0.03937007874015748,0.007874015748031496,-0.007874015748031496,-0.007874015748031496,-0.007874015748031496
5.794344186782837,-0.031496062992125984,0.031496062992125984,-0.08661417322834646,0.0,-0.015748031496062992,-0.023622047244094488,-0.023622047244094488,-0.023622047244094488
5.7944347858428955,0.015748031496062992,0.023622047244094488,-0.031496062992125984,-0.05511811023622047,-0.007874015748031496,-0.023622047244094488,-0.007874015748031496,-0.015748031496062992
5.794525384902954,-0.015748031496062992,-0.03937007874015748,0.023622047244094488,0.015748031496062992,0.0,-0.007874015748031496,-0.007874015748031496,-0.007874015748031496
5.7947633266448975,0.0,0.07086614173228346,0.05511811023622047,0.08661417322834646,0.0,0.015748031496062992,-0.015748031496062992,0.007874015748031496
5.795001268386841,0.0,-0.047244094488188976,-0.10236220472440945,-0.11023622047244094,-0.031496062992125984,-0.015748031496062992,0.0,0.0
5.795109272003174,0.03937007874015748,0.0,-0.015748031496062992,-0.03937007874015748,-0.007874015748031496,-0.015748031496062992,-0.007874015748031496,-0.007874015748031496
5.795217275619507,-0.06299212598425197,-0.07874015748031496,-0.023622047244094488,-0.06299212598425197,-0.015748031496062992,-0.007874015748031496,-0.023622047244094488,-0.03937007874015748
5.795442700386047,-0.03937007874015748,-0.08661417322834646,-0.11811023622047244,0.031496062992125984,-0.007874015748031496,-0.015748031496062992,0.0,-0.023622047244094488
5.795668125152588,-0.007874015748031496,-0.023622047244094488,0.03937007874015748,-0.03937007874015748,-0.023622047244094488,-0.007874015748031496,-0.007874015748031496,-0.007874015748031496
5.795764088630676,-0.007874015748031496,0.007874015748031496,-0.007874015748031496,0.007874015748031496,0.015748031496062992,0.007874015748031496,0.007874015748031496,0.0
5.795860052108765,0.023622047244094488,0.031496062992125984,0.047244094488188976,0.023622047244094488,-0.007874015748031496,-0.023622047244094488,-0.023622047244094488,0.0
5.796056628227234,-0.015748031496062992,0.031496062992125984,-0.03937007874015748,0.0,-0.007874015748031496,0.0,-0.023622047244094488,-0.015748031496062992
5.796253204345703,0.007874015748031496,-0.015748031496062992,0.0,0.007874015748031496,0.015748031496062992,0.007874015748031496,0.0,-0.007874015748031496
5.796344637870789,0.03937007874015748,-0.031496062992125984,0.0,-0.015748031496062992,-0.007874015748031496,-0.023622047244094488,-0.031496062992125984,-0.031496062992125984
5.796436071395874,-0.05511811023622047,0.08661417322834646,0.1732283464566929,0.031496062992125984,-0.007874015748031496,0.0,0.007874015748031496,-0.007874015748031496
5.796661138534546,-0.015748031496062992,-0.03937007874015748,-0.13385826771653545,-0.023622047244094488,-0.007874015748031496,-0.015748031496062992,-0.007874015748031496,0.0
5.796886205673218,0.007874015748031496,-0.03937007874015748,-0.023622047244094488,0.0,-0.007874015748031496,0.0,0.0,-0.007874015748031496
5.796978712081909,-0.031496062992125984,-0.03937007874015748,0.0,-0.007874015748031496,-0.007874015748031496,0.0,0.0,-0.023622047244094488
5.797071218490601,0.0,0.07086614173228346,0.03937007874015748,0.007874015748031496,0.007874015748031496,0.015748031496062992,0.023622047244094488,0.023622047244094488
5.797271132469177,0.0,0.031496062992125984,0.007874015748031496,-0.03937007874015748,-0.015748031496062992,-0.023622047244094488,-0.007874015748031496,-0.015748031496062992
5.797471046447754,-0.007874015748031496,0.1968503937007874,0.07086614173228346,0.015748031496062992,-0.007874015748031496,-0.007874015748031496,-0.015748031496062992,0.007874015748031496
5.797561526298523,-0.047244094488188976,-0.03937007874015748,0.06299212598425197,0.015748031496062992,0.0,-0.007874015748031496,0.007874015748031496,0.007874015748031496
5.797652006149292,0.0,-0.031496062992125984,-0.14960629921259844,-0.031496062992125984,-0.023622047244094488,0.0,-0.015748031496062992,0.0
5.7978515625,0.015748031496062992,0.047244094488188976,-0.007874015748031496,0.023622047244094488,0.015748031496062992,0.015748031496062992,0.0,0.007874015748031496
5.798051118850708,0.0,-0.07874015748031496,-0.03937007874015748,0.023622047244094488,-0.023622047244094488,-0.007874015748031496,-0.015748031496062992,-0.023622047244094488
5.798141598701477,-0.015748031496062992,0.06299212598425197,-0.023622047244094488,-0.05511811023622047,-0.015748031496062992,0.0,-0.015748031496062992,-0.007874015748031496
5.798232078552246,0.06299212598425197,-0.031496062992125984,0.007874015748031496,0.08661417322834646,0.007874015748031496,-0.015748031496062992,-0.023622047244094488,-0.007874015748031496
5.798426151275635,0.023622047244094488,0.0,-0.047244094488188976,-0.1732283464566929,-0.06299212598425197,-0.031496062992125984,-0.007874015748031496,0.0
5.798620223999023,-0.031496062992125984,-0.08661417322834646,0.11023622047244094,0.007874015748031496,-0.007874015748031496,-0.023622047244094488,-0.031496062992125984,-0.015748031496062992
5.798712134361267,-0.015748031496062992,0.0,0.047244094488188976,0.03937007874015748,0.007874015748031496,0.015748031496062992,0.007874015748031496,-0.007874015748031496
5.798804044723511,0.047244094488188976,0.047244094488188976,0.07086614173228346,-0.023622047244094488,0.0,-0.007874015748031496,-0.015748031496062992,0.007874015748031496
5.798896551132202,-0.06299212598425197,-0.023622047244094488,-0.031496062992125984,0.007874015748031496,0.023622047244094488,0.015748031496062992,-0.015748031496062992,-0.015748031496062992
5.7989890575408936,0.07874015748031496,0.36220472440944884,0.06299212598425197,0.05511811023622047,-0.015748031496062992,0.0,0.007874015748031496,0.031496062992125984
5.799184560775757,0.0,0.031496062992125984,-0.18110236220472442,-0.023622047244094488,-0.007874015748031496,-0.007874015748031496,-0.007874015748031496,-0.015748031496062992
5.79938006401062,0.007874015748031496,-0.07086614173228346,0.023622047244094488,-0.007874015748031496,0.007874015748031496,0.015748031496062992,0.0,-0.015748031496062992
5.799469709396362,-0.015748031496062992,0.015748031496062992,0.08661417322834646,-0.015748031496062992,-0.015748031496062992,-0.007874015748031496,-0.007874015748031496,-0.007874015748031496
5.7995593547821045,-0.03937007874015748,-0.07086614173228346,0.11023622047244094,0.0,0.007874015748031496,0.0,-0.015748031496062992,-0.007874015748031496
5.799774169921875,-0.03937007874015748,-0.047244094488188976,0.015748031496062992,-0.007874015748031496,0.0,-0.015748031496062992,-0.007874015748031496,-0.015748031496062992
5.7999889850616455,0.031496062992125984,0.047244094488188976,0.06299212598425197,-0.03937007874015748,-0.015748031496062992,-0.007874015748031496,0.0,0.015748031496062992
5.80008602142334,-0.007874015748031496,-0.07086614173228346,-0.14173228346456693,-0.015748031496062992,-0.023622047244094488,0.0,0.0,-0.007874015748031496
5.800183057785034,-0.031496062992125984,-0.007874015748031496,0.047244094488188976,0.023622047244094488,-0.015748031496062992,-0.023622047244094488,-0.007874015748031496,-0.023622047244094488
5.800411581993103,0.007874015748031496,0.031496062992125984,-0.25196850393700787,-0.05511811023622047,-0.023622047244094488,-0.023622047244094488,-0.007874015748031496,0.015748031496062992
5.800640106201172,-0.06299212598425197,0.12598425196850394,0.29133858267716534,0.023622047244094488,0.007874015748031496,0.0,0.0,-0.007874015748031496
5.800735592842102,-0.007874015748031496,-0.031496062992125984,0.031496062992125984,-0.05511811023622047,-0.007874015748031496,-0.007874015748031496,0.0,0.007874015748031496
5.800831079483032,-0.031496062992125984,-0.07874015748031496,-0.10236220472440945,0.007874015748031496,0.007874015748031496,-0.007874015748031496,-0.007874015748031496,-0.007874015748031496
5.801087021827698,-0.023622047244094488,0.0,0.05511811023622047,-0.015748031496062992,-0.015748031496062992,-0.015748031496062992,-0.015748031496062992,-0.007874015748031496
5.801342964172363,0.07086614173228346,-0.15748031496062992,-0.10236220472440945,-0.023622047244094488,-0.031496062992125984,-0.023622047244094488,0.0,0.0
5.801439523696899,-0.023622047244094488,0.03937007874015748,0.1889763779527559,0.047244094488188976,0.007874015748031496,0.0,-0.015748031496062992,-0.007874015748031496
5.8015360832214355,-0.031496062992125984,-0.07086614173228346,0.015748031496062992,0.007874015748031496,-0.015748031496062992,-0.023622047244094488,-0.007874015748031496,0.0
5.801773190498352,-0.007874015748031496,-0.10236220472440945,0.13385826771653545,-0.015748031496062992,-0.015748031496062992,0.0,0.0,0.007874015748031496
5.8020102977752686,0.015748031496062992,0.007874015748031496,0.07874015748031496,0.023622047244094488,0.007874015748031496,0.0,0.0,0.0
5.802103638648987,0.015748031496062992,-0.08661417322834646,-0.2992125984251969,-0.047244094488188976,-0.023622047244094488,-0.015748031496062992,0.0,-0.015748031496062992
5.802196979522705,0.07086614173228346,-0.2204724409448819,-0.10236220472440945,-0.023622047244094488,0.0,-0.031496062992125984,-0.031496062992125984,-0.023622047244094488
5.802397131919861,-0.14960629921259844,-0.07086614173228346,-0.007874015748031496,0.023622047244094488,0.015748031496062992,0.023622047244094488,0.0,-0.031496062992125984
5.802597284317017,-0.03937007874015748,0.29133858267716534,-0.03937007874015748,0.0,-0.007874015748031496,-0.015748031496062992,0.015748031496062992,-0.007874015748031496
5.802688717842102,0.015748031496062992,0.047244094488188976,0.09448818897637795,-0.03937007874015748,-0.007874015748031496,0.0,-0.015748031496062992,0.007874015748031496
5.8027801513671875,0.023622047244094488,-0.07086614173228346,-0.2125984251968504,-0.06299212598425197,-0.015748031496062992,-0.007874015748031496,0.007874015748031496,0.007874015748031496
5.803045153617859,0.015748031496062992,-0.11023622047244094,-0.08661417322834646,0.0,0.0,-0.007874015748031496,0.007874015748031496,-0.007874015748031496
5.80331015586853,-0.015748031496062992,-0.07874015748031496,0.12598425196850394,0.0,0.0,-0.007874015748031496,0.007874015748031496,-0.023622047244094488
5.803403615951538,-0.1889763779527559,0.07874015748031496,-0.07086614173228346,0.0,0.0,-0.015748031496062992,0.0,-0.007874015748031496
5.803497076034546,-0.06299212598425197,0.07874015748031496,0.11023622047244094,0.03937007874015748,-0.007874015748031496,-0.007874015748031496,-0.015748031496062992,-0.007874015748031496
5.8036946058273315,-0.10236220472440945,0.3858267716535433,0.0,-0.015748031496062992,-0.007874015748031496,0.0,0.0,0.0
5.803892135620117,0.08661417322834646,-0.11811023622047244,-0.11811023622047244,-0.031496062992125984,0.0,0.0,0.0,0.007874015748031496
5.803994059562683,0.03937007874015748,-0.11023622047244094,-0.13385826771653545,-0.015748031496062992,-0.015748031496062992,-0.023622047244094488,-0.007874015748031496,0.007874015748031496
5.804095983505249,-0.11811023622047244,0.11023622047244094,0.015748031496062992,0.031496062992125984,0.015748031496062992,0.015748031496062992,0.007874015748031496,0.0
5.80418860912323,-0.023622047244094488,0.0,0.023622047244094488,-0.031496062992125984,-0.023622047244094488,-0.007874015748031496,-0.015748031496062992,-0.015748031496062992
5.804281234741211,0.047244094488188976,-0.16535433070866143,-0.29133858267716534,-0.023622047244094488,-0.03937007874015748,-0.023622047244094488,0.0,0.0
5.804370641708374,-0.11023622047244094,0.15748031496062992,0.07086614173228346,0.015748031496062992,0.0,0.0,0.007874015748031496,-0.031496062992125984
5.804460048675537,-0.031496062992125984,0.03937007874015748,0.007874015748031496,-0.015748031496062992,-0.015748031496062992,-0.007874015748031496,-0.007874015748031496,-0.015748031496062992
5.804655194282532,0.047244094488188976,-0.14173228346456693,0.0,0.0,0.015748031496062992,0.015748031496062992,0.007874015748031496,0.007874015748031496
5.804850339889526,-0.06299212598425197,0.3937007874015748,0.2283464566929134,-0.015748031496062992,-0.023622047244094488,-0.023622047244094488,-0.015748031496062992,-0.015748031496062992
5.804947257041931,-0.1889763779527559,-0.031496062992125984,-0.047244094488188976,0.03937007874015748,0.015748031496062992,0.0,-0.023622047244094488,-0.03937007874015748
5.805044174194336,0.031496062992125984,-0.14173228346456693,-0.23622047244094488,-0.023622047244094488,-0.007874015748031496,-0.023622047244094488,-0.015748031496062992,-0.007874015748031496
5.805272221565247,-0.06299212598425197,-0.07874015748031496,-0.14960629921259844,-0.047244094488188976,-0.03937007874015748,-0.023622047244094488,-0.015748031496062992,-0.031496062992125984
5.805500268936157,-0.023622047244094488,-0.12598425196850394,-0.30708661417322836,-0.05511811023622047,-0.023622047244094488,-0.031496062992125984,-0.015748031496062992,-0.031496062992125984
5.805591821670532,0.10236220472440945,0.03937007874015748,0.047244094488188976,-0.007874015748031496,-0.015748031496062992,-0.015748031496062992,-0.007874015748031496,0.007874015748031496
5.805683374404907,-0.023622047244094488,0.023622047244094488,0.1889763779527559,0.031496062992125984,0.007874015748031496,0.007874015748031496,0.0,0.0
5.805930256843567,0.023622047244094488,-0.23622047244094488,0.05511811023622047,0.007874015748031496,-0.023622047244094488,-0.023622047244094488,-0.023622047244094488,-0.007874015748031496
5.806177139282227,0.11023622047244094,-0.015748031496062992,0.047244094488188976,0.015748031496062992,0.015748031496062992,-0.007874015748031496,-0.007874015748031496,0.007874015748031496
5.806271553039551,-0.16535433070866143,0.14960629921259844,0.06299212598425197,0.007874015748031496,0.015748031496062992,-0.007874015748031496,-0.023622047244094488,-0.03937007874015748
5.806365966796875,0.015748031496062992,-0.007874015748031496,-0.07874015748031496,0.0,-0.015748031496062992,-0.015748031496062992,-0.007874015748031496,0.007874015748031496
5.806584596633911,-0.007874015748031496,0.007874015748031496,0.07874015748031496,-0.015748031496062992,-0.015748031496062992,0.015748031496062992,0.023622047244094488,0.06299212598425197
5.806803226470947,-0.07086614173228346,-0.08661417322834646,0.0,-0.007874015748031496,-0.007874015748031496,0.015748031496062992,0.0,-0.023622047244094488
5.806914806365967,0.06299212598425197,-0.10236220472440945,-0.14960629921259844,-0.007874015748031496,-0.007874015748031496,-0.007874015748031496,-0.015748031496062992,-0.007874015748031496
5.807026386260986,-0.031496062992125984,0.047244094488188976,0.15748031496062992,0.0,-0.015748031496062992,0.023622047244094488,-0.007874015748031496,-0.007874015748031496
5.807292342185974,-0.07086614173228346,0.0,-0.12598425196850394,0.0,0.007874015748031496,-0.015748031496062992,-0.015748031496062992,-0.031496062992125984
5.807558298110962,0.05511811023622047,-0.03937007874015748,0.3228346456692913,0.03937007874015748,-0.007874015748031496,0.007874015748031496,0.007874015748031496,0.023622047244094488
5.807650685310364,0.03937007874015748,-0.18110236220472442,-0.5433070866141733,-0.05511811023622047,-0.031496062992125984,-0.015748031496062992,-0.015748031496062992,-0.007874015748031496
5.807743072509766,-0.015748031496062992,0.047244094488188976,-0.11811023622047244,0.0,0.0,-0.007874015748031496,-0.007874015748031496,0.0
5.807942628860474,0.18110236220472442,-0.031496062992125984,0.023622047244094488,0.007874015748031496,0.0,-0.015748031496062992,-0.031496062992125984,-0.007874015748031496
5.808142185211182,-0.007874015748031496,-0.05511811023622047,0.3937007874015748,0.015748031496062992,0.0,0.007874015748031496,0.007874015748031496,-0.015748031496062992
5.8082321882247925,0.10236220472440945,-0.007874015748031496,-0.06299212598425197,-0.03937007874015748,-0.023622047244094488,-0.015748031496062992,0.0,0.007874015748031496
5.808322191238403,-0.1968503937007874,0.11023622047244094,-0.03937007874015748,-0.05511811023622047,-0.03937007874015748,-0.03937007874015748,-0.031496062992125984,-0.03937007874015748
5.80851674079895,0.03937007874015748,0.05511811023622047,-0.047244094488188976,0.015748031496062992,0.015748031496062992,0.007874015748031496,-0.007874015748031496,0.0
5.808711290359497,0.031496062992125984,0.0,0.2440944881889764,0.08661417322834646,-0.007874015748031496,0.0,-0.007874015748031496,0.0
5.808802843093872,0.007874015748031496,0.05511811023622047,0.09448818897637795,-0.007874015748031496,0.0,0.0,0.0,-0.015748031496062992
5.808894395828247,-0.015748031496062992,-0.09448818897637795,-0.07874015748031496,-0.08661417322834646,-0.015748031496062992,-0.007874015748031496,-0.015748031496062992,-0.007874015748031496
5.80908727645874,-0.03937007874015748,0.031496062992125984,0.047244094488188976,-0.023622047244094488,0.0,0.007874015748031496,0.0,-0.007874015748031496
