,emg1,emg2,emg3,emg4,emg5,emg6,emg7,emg8
10.5772123336792,-0.015748031496062992,0.0,-0.007874015748031496,-0.007874015748031496,0.0,-0.007874015748031496,-0.015748031496062992,0.015748031496062992
10.577428698539734,-0.007874015748031496,-0.007874015748031496,-0.007874015748031496,-0.007874015748031496,-0.007874015748031496,-0.007874015748031496,-0.007874015748031496,0.0
10.577645063400269,-0.007874015748031496,0.007874015748031496,0.007874015748031496,-0.015748031496062992,-0.015748031496062992,-0.007874015748031496,0.0,0.0
10.578069567680359,0.0,0.0,0.0,-0.015748031496062992,-0.007874015748031496,0.0,0.0,-0.007874015748031496
10.57849407196045,0.0,0.0,-0.007874015748031496,-0.007874015748031496,0.007874015748031496,-0.015748031496062992,0.0,-0.015748031496062992
10.578672051429749,0.007874015748031496,0.015748031496062992,-0.007874015748031496,-0.015748031496062992,-0.023622047244094488,-0.015748031496062992,-0.007874015748031496,-0.015748031496062992
10.578850030899048,-0.007874015748031496,0.0,0.0,-0.015748031496062992,0.0,0.0,0.0,-0.007874015748031496
10.592607975006104,0.007874015748031496,-0.007874015748031496,0.007874015748031496,0.0,0.0,0.0,-0.015748031496062992,-1.0078740157480315
10.60636591911316,-0.015748031496062992,-0.007874015748031496,-0.015748031496062992,-0.007874015748031496,-0.007874015748031496,-0.015748031496062992,-0.007874015748031496,-0.023622047244094488
10.670924067497253,-0.007874015748031496,0.031496062992125984,0.0,0.0,0.15748031496062992,0.3228346456692913,0.1732283464566929,0.18110236220472442
10.735482215881348,0.007874015748031496,-0.007874015748031496,0.015748031496062992,0.023622047244094488,0.11023622047244094,0.023622047244094488,0.015748031496062992,-0.015748031496062992
10.741561651229858,-0.015748031496062992,0.0,-0.015748031496062992,0.007874015748031496,0.007874015748031496,-0.007874015748031496,0.0,-0.007874015748031496
10.74764108657837,0.007874015748031496,0.007874015748031496,-0.007874015748031496,-0.023622047244094488,-0.1968503937007874,-0.05511811023622047,0.2047244094488189,0.031496062992125984
10.751370191574097,-0.015748031496062992,-0.03937007874015748,-0.031496062992125984,-0.023622047244094488,-0.1889763779527559,0.0,-0.031496062992125984,-0.007874015748031496
10.755099296569824,-0.007874015748031496,-0.015748031496062992,0.0,-0.015748031496062992,0.2047244094488189,0.007874015748031496,-0.05511811023622047,-0.031496062992125984
10.759562730789185,0.007874015748031496,0.007874015748031496,0.007874015748031496,0.015748031496062992,0.14173228346456693,-0.11023622047244094,-0.12598425196850394,0.007874015748031496
10.764026165008545,-0.023622047244094488,-0.03937007874015748,-0.031496062992125984,-0.05511811023622047,-0.13385826771653545,-0.10236220472440945,0.0,-0.031496062992125984
10.770865559577942,0.0,0.007874015748031496,-0.007874015748031496,0.015748031496062992,-0.023622047244094488,0.06299212598425197,-0.10236220472440945,-0.015748031496062992
10.777704954147339,0.0,0.0,0.007874015748031496,0.0,0.08661417322834646,0.14173228346456693,0.08661417322834646,0.007874015748031496
10.78209400177002,-0.007874015748031496,0.0,0.023622047244094488,0.047244094488188976,-0.007874015748031496,-0.07086614173228346,-0.007874015748031496,0.007874015748031496
10.7864830493927,0.0,0.007874015748031496,-0.007874015748031496,-0.023622047244094488,-0.16535433070866143,0.11811023622047244,-0.15748031496062992,-0.007874015748031496
10.79359757900238,0.007874015748031496,0.007874015748031496,0.0,0.015748031496062992,0.2125984251968504,-0.16535433070866143,0.11811023622047244,0.007874015748031496
10.80071210861206,-0.015748031496062992,-0.015748031496062992,-0.031496062992125984,-0.047244094488188976,-0.23622047244094488,-0.14960629921259844,-0.07874015748031496,-0.05511811023622047
10.804167628288269,0.015748031496062992,0.0,0.0,0.015748031496062992,0.2204724409448819,0.2677165354330709,0.10236220472440945,0.007874015748031496
10.807623147964478,-0.03937007874015748,-0.047244094488188976,-0.031496062992125984,-0.047244094488188976,-0.2047244094488189,-0.25984251968503935,-0.007874015748031496,-0.047244094488188976
10.811367154121399,0.0,0.0,-0.015748031496062992,0.007874015748031496,-0.031496062992125984,0.11811023622047244,0.06299212598425197,0.023622047244094488
10.81511116027832,0.007874015748031496,0.007874015748031496,0.015748031496062992,0.047244094488188976,0.11023622047244094,0.031496062992125984,-0.031496062992125984,-0.023622047244094488
10.81957757472992,-0.007874015748031496,-0.015748031496062992,-0.023622047244094488,-0.023622047244094488,-0.07874015748031496,-0.1968503937007874,0.015748031496062992,-0.031496062992125984
10.824043989181519,0.007874015748031496,0.015748031496062992,0.015748031496062992,0.015748031496062992,0.1889763779527559,0.13385826771653545,0.015748031496062992,0.007874015748031496
10.830796003341675,0.0,0.007874015748031496,0.0,-0.015748031496062992,-0.11811023622047244,0.07086614173228346,-0.023622047244094488,-0.007874015748031496
10.837548017501831,-0.023622047244094488,-0.023622047244094488,-0.023622047244094488,-0.031496062992125984,0.10236220472440945,0.015748031496062992,0.03937007874015748,-0.015748031496062992
10.842053055763245,0.0,0.0,-0.007874015748031496,-0.031496062992125984,-0.031496062992125984,-0.07086614173228346,0.031496062992125984,0.015748031496062992
10.846558094024658,-0.007874015748031496,-0.007874015748031496,-0.007874015748031496,0.047244094488188976,0.3937007874015748,0.14960629921259844,0.05511811023622047,0.007874015748031496
10.849728107452393,-0.023622047244094488,-0.007874015748031496,-0.031496062992125984,-0.07086614173228346,-0.6141732283464567,-0.2283464566929134,-0.05511811023622047,-0.015748031496062992
10.852898120880127,-0.015748031496062992,-0.007874015748031496,-0.031496062992125984,-0.023622047244094488,0.14960629921259844,-0.007874015748031496,-0.03937007874015748,0.0
10.860955595970154,-0.007874015748031496,-0.007874015748031496,0.007874015748031496,0.007874015748031496,-0.11811023622047244,-0.007874015748031496,-0.08661417322834646,-0.023622047244094488
10.86901307106018,-0.023622047244094488,-0.007874015748031496,-0.007874015748031496,-0.023622047244094488,0.06299212598425197,0.023622047244094488,0.06299212598425197,-0.023622047244094488
10.872047066688538,-0.007874015748031496,-0.015748031496062992,0.015748031496062992,0.031496062992125984,0.30708661417322836,-0.007874015748031496,0.03937007874015748,-0.023622047244094488
10.875081062316895,-0.015748031496062992,-0.023622047244094488,-0.007874015748031496,-0.015748031496062992,-0.3228346456692913,-0.14173228346456693,-0.015748031496062992,-0.015748031496062992
10.879541039466858,0.0,-0.023622047244094488,-0.031496062992125984,-0.08661417322834646,-0.31496062992125984,-0.05511811023622047,0.015748031496062992,-0.007874015748031496
10.884001016616821,0.007874015748031496,0.015748031496062992,0.023622047244094488,0.05511811023622047,0.36220472440944884,0.10236220472440945,0.07086614173228346,0.031496062992125984
10.89517056941986,-0.007874015748031496,-0.023622047244094488,-0.031496062992125984,-0.03937007874015748,-0.33070866141732286,-0.05511811023622047,-0.06299212598425197,-0.023622047244094488
10.9063401222229,0.0,-0.007874015748031496,-0.031496062992125984,-0.03937007874015748,-0.031496062992125984,0.11811023622047244,-0.03937007874015748,-0.015748031496062992
10.907143592834473,-0.007874015748031496,-0.023622047244094488,-0.015748031496062992,-0.03937007874015748,-0.015748031496062992,-0.1968503937007874,-0.015748031496062992,-0.007874015748031496
10.907947063446045,0.0,0.007874015748031496,0.023622047244094488,0.023622047244094488,-0.2125984251968504,-0.007874015748031496,-0.07874015748031496,-0.031496062992125984
10.91021716594696,0.007874015748031496,-0.015748031496062992,0.0,0.015748031496062992,0.06299212598425197,0.10236220472440945,-0.07086614173228346,0.015748031496062992
10.912487268447876,0.007874015748031496,0.007874015748031496,0.023622047244094488,0.031496062992125984,0.18110236220472442,0.023622047244094488,-0.023622047244094488,0.015748031496062992
10.92001223564148,-0.015748031496062992,-0.023622047244094488,-0.023622047244094488,-0.015748031496062992,0.05511811023622047,0.14173228346456693,-0.06299212598425197,0.0
10.927537202835083,0.0,0.007874015748031496,0.0,0.0,0.007874015748031496,0.023622047244094488,0.023622047244094488,0.015748031496062992
10.935749173164368,0.007874015748031496,-0.007874015748031496,0.0,-0.031496062992125984,-0.09448818897637795,-0.1732283464566929,0.0,0.007874015748031496
10.943961143493652,-0.007874015748031496,0.0,-0.015748031496062992,-0.015748031496062992,-0.07874015748031496,-0.007874015748031496,0.03937007874015748,0.0
10.944709181785583,-0.007874015748031496,-0.015748031496062992,0.0,0.007874015748031496,0.08661417322834646,0.007874015748031496,-0.023622047244094488,-0.015748031496062992
10.945457220077515,-0.023622047244094488,-0.007874015748031496,-0.015748031496062992,-0.015748031496062992,-0.007874015748031496,-0.015748031496062992,-0.031496062992125984,0.0
10.951482653617859,0.0,0.015748031496062992,0.023622047244094488,0.05511811023622047,0.3543307086614173,0.2047244094488189,0.007874015748031496,0.0
10.957508087158203,-0.007874015748031496,-0.007874015748031496,0.007874015748031496,0.015748031496062992,0.28346456692913385,0.08661417322834646,-0.015748031496062992,0.0
10.962051630020142,-0.015748031496062992,0.0,-0.023622047244094488,-0.11811023622047244,-0.84251968503937,-0.2440944881889764,-0.047244094488188976,-0.03937007874015748
10.96659517288208,0.015748031496062992,-0.023622047244094488,-0.015748031496062992,-0.007874015748031496,0.2047244094488189,-0.08661417322834646,0.007874015748031496,0.0
10.969541549682617,0.0,0.0,0.0,0.015748031496062992,0.07874015748031496,0.12598425196850394,0.03937007874015748,0.015748031496062992
10.972487926483154,-0.015748031496062992,-0.023622047244094488,0.0,-0.007874015748031496,0.03937007874015748,-0.007874015748031496,0.031496062992125984,-0.007874015748031496
10.984081625938416,-0.031496062992125984,-0.031496062992125984,-0.007874015748031496,0.007874015748031496,0.08661417322834646,-0.047244094488188976,-0.07086614173228346,0.0
10.995675325393677,-0.015748031496062992,-0.015748031496062992,-0.015748031496062992,-0.03937007874015748,-0.08661417322834646,0.2204724409448819,-0.007874015748031496,-0.05511811023622047
10.996084690093994,-0.007874015748031496,-0.007874015748031496,-0.007874015748031496,-0.03937007874015748,-0.09448818897637795,-0.11023622047244094,0.05511811023622047,0.007874015748031496
10.996494054794312,0.015748031496062992,0.023622047244094488,0.023622047244094488,0.05511811023622047,0.07086614173228346,0.12598425196850394,0.14960629921259844,0.023622047244094488
11.000259041786194,-0.023622047244094488,-0.031496062992125984,-0.03937007874015748,-0.023622047244094488,0.13385826771653545,-0.14173228346456693,-0.09448818897637795,-0.03937007874015748
11.004024028778076,-0.007874015748031496,-0.007874015748031496,0.0,-0.023622047244094488,-0.09448818897637795,-0.031496062992125984,-0.031496062992125984,-0.007874015748031496
11.010779023170471,-0.007874015748031496,-0.023622047244094488,-0.007874015748031496,-0.007874015748031496,0.06299212598425197,-0.06299212598425197,-0.047244094488188976,-0.023622047244094488
11.017534017562866,-0.007874015748031496,0.0,-0.007874015748031496,-0.015748031496062992,-0.09448818897637795,0.07086614173228346,0.023622047244094488,0.007874015748031496
11.022062540054321,0.015748031496062992,0.015748031496062992,0.007874015748031496,0.031496062992125984,0.13385826771653545,0.2992125984251969,0.047244094488188976,0.023622047244094488
11.026591062545776,-0.007874015748031496,0.0,0.0,0.007874015748031496,-0.03937007874015748,-0.11023622047244094,-0.09448818897637795,-0.023622047244094488
11.029578566551208,-0.015748031496062992,-0.023622047244094488,-0.031496062992125984,-0.03937007874015748,-0.12598425196850394,0.0,-0.015748031496062992,-0.031496062992125984
11.03256607055664,-0.007874015748031496,0.0,-0.007874015748031496,-0.007874015748031496,-0.07086614173228346,-0.047244094488188976,0.0,-0.007874015748031496
11.040003657341003,-0.007874015748031496,-0.007874015748031496,-0.023622047244094488,-0.015748031496062992,0.13385826771653545,0.015748031496062992,-0.015748031496062992,-0.023622047244094488
11.047441244125366,-0.015748031496062992,0.007874015748031496,0.007874015748031496,0.007874015748031496,-0.07086614173228346,-0.12598425196850394,-0.07086614173228346,0.015748031496062992
11.051209211349487,0.0,-0.015748031496062992,0.0,0.015748031496062992,0.047244094488188976,0.07086614173228346,-0.14960629921259844,0.0
11.054977178573608,-0.023622047244094488,-0.031496062992125984,-0.03937007874015748,-0.06299212598425197,0.10236220472440945,-0.12598425196850394,0.03937007874015748,-0.015748031496062992
11.059484601020813,0.007874015748031496,-0.007874015748031496,-0.007874015748031496,0.0,-0.047244094488188976,0.08661417322834646,0.07086614173228346,0.007874015748031496
11.063992023468018,0.007874015748031496,0.023622047244094488,0.007874015748031496,0.023622047244094488,-0.06299212598425197,-0.07086614173228346,-0.031496062992125984,-0.031496062992125984
11.07077157497406,-0.015748031496062992,-0.015748031496062992,0.0,0.0,-0.023622047244094488,-0.2047244094488189,-0.007874015748031496,-0.023622047244094488
11.077551126480103,0.015748031496062992,0.007874015748031496,0.0,0.007874015748031496,0.07086614173228346,0.16535433070866143,0.015748031496062992,0.007874015748031496
11.082012057304382,-0.015748031496062992,-0.007874015748031496,0.007874015748031496,0.007874015748031496,-0.007874015748031496,-0.06299212598425197,-0.007874015748031496,-0.015748031496062992
11.086472988128662,0.007874015748031496,-0.023622047244094488,-0.007874015748031496,-0.015748031496062992,0.023622047244094488,-0.15748031496062992,-0.05511811023622047,0.007874015748031496
11.089498519897461,-0.007874015748031496,-0.007874015748031496,-0.007874015748031496,-0.007874015748031496,0.047244094488188976,0.07086614173228346,-0.007874015748031496,-0.015748031496062992
11.09252405166626,-0.023622047244094488,-0.007874015748031496,-0.007874015748031496,0.023622047244094488,-0.07874015748031496,0.007874015748031496,-0.13385826771653545,-0.023622047244094488
11.10001814365387,-0.015748031496062992,-0.007874015748031496,-0.023622047244094488,-0.03937007874015748,0.1968503937007874,-0.05511811023622047,0.0,-0.015748031496062992
11.10751223564148,0.007874015748031496,-0.007874015748031496,-0.015748031496062992,0.0,0.14960629921259844,0.07874015748031496,0.06299212598425197,0.0
11.111270189285278,-0.015748031496062992,0.007874015748031496,0.0,-0.031496062992125984,-0.2204724409448819,-0.047244094488188976,0.07086614173228346,0.007874015748031496
11.115028142929077,0.0,0.0,0.015748031496062992,0.015748031496062992,0.007874015748031496,-0.047244094488188976,-0.007874015748031496,-0.015748031496062992
11.119534611701965,-0.007874015748031496,-0.007874015748031496,0.0,0.015748031496062992,-0.07086614173228346,0.07086614173228346,0.0,-0.03937007874015748
11.124041080474854,0.0,0.007874015748031496,-0.007874015748031496,0.015748031496062992,0.11023622047244094,0.2677165354330709,0.08661417322834646,0.047244094488188976
11.135265588760376,0.0,-0.015748031496062992,-0.03937007874015748,-0.03937007874015748,0.007874015748031496,-0.1732283464566929,0.0,-0.007874015748031496
11.146490097045898,-0.015748031496062992,0.0,0.0,0.0,-0.15748031496062992,0.007874015748031496,-0.007874015748031496,-0.023622047244094488
11.147211194038391,0.007874015748031496,0.023622047244094488,0.023622047244094488,0.047244094488188976,0.14173228346456693,0.0,0.05511811023622047,0.023622047244094488
11.147932291030884,-0.015748031496062992,-0.023622047244094488,-0.015748031496062992,-0.031496062992125984,-0.07874015748031496,0.08661417322834646,-0.14960629921259844,-0.007874015748031496
11.150211691856384,-0.007874015748031496,0.0,-0.023622047244094488,-0.015748031496062992,0.023622047244094488,-0.047244094488188976,-0.05511811023622047,-0.007874015748031496
11.152491092681885,-0.007874015748031496,-0.023622047244094488,-0.015748031496062992,0.015748031496062992,0.08661417322834646,-0.007874015748031496,0.0,-0.015748031496062992
11.164083123207092,0.0,0.0,-0.015748031496062992,-0.03937007874015748,-0.1968503937007874,-0.06299212598425197,-0.023622047244094488,-0.007874015748031496
11.1756751537323,-0.007874015748031496,-0.015748031496062992,0.0,0.0,-0.03937007874015748,-0.07874015748031496,-0.031496062992125984,0.0
11.176055550575256,0.015748031496062992,0.015748031496062992,0.015748031496062992,0.03937007874015748,0.25196850393700787,0.09448818897637795,0.031496062992125984,0.0
11.176435947418213,-0.007874015748031496,-0.023622047244094488,-0.023622047244094488,-0.06299212598425197,-0.2283464566929134,-0.14173228346456693,-0.03937007874015748,-0.007874015748031496
11.180212497711182,0.007874015748031496,0.015748031496062992,-0.007874015748031496,0.007874015748031496,0.15748031496062992,0.14960629921259844,-0.07874015748031496,-0.015748031496062992
11.18398904800415,-0.007874015748031496,-0.007874015748031496,-0.023622047244094488,0.0,0.25196850393700787,0.015748031496062992,0.05511811023622047,0.007874015748031496
11.190765619277954,-0.007874015748031496,-0.015748031496062992,0.0,0.0,-0.2125984251968504,-0.023622047244094488,-0.03937007874015748,-0.023622047244094488
11.197542190551758,0.0,-0.023622047244094488,0.015748031496062992,-0.007874015748031496,-0.015748031496062992,0.0,0.023622047244094488,0.015748031496062992
11.20209264755249,0.007874015748031496,0.007874015748031496,0.007874015748031496,0.047244094488188976,0.3858267716535433,0.0,0.031496062992125984,0.007874015748031496
11.206643104553223,-0.023622047244094488,-0.007874015748031496,-0.015748031496062992,-0.07086614173228346,-0.5039370078740157,-0.08661417322834646,0.08661417322834646,-0.007874015748031496
11.209617137908936,0.0,0.0,-0.007874015748031496,0.031496062992125984,0.2440944881889764,0.1968503937007874,0.05511811023622047,0.007874015748031496
11.212591171264648,-0.023622047244094488,-0.015748031496062992,-0.023622047244094488,-0.015748031496062992,-0.015748031496062992,-0.08661417322834646,0.09448818897637795,0.023622047244094488
11.220054268836975,-0.007874015748031496,-0.015748031496062992,-0.015748031496062992,-0.05511811023622047,-0.2677165354330709,0.07874015748031496,-0.10236220472440945,0.007874015748031496
11.227517366409302,0.0,-0.007874015748031496,-0.007874015748031496,0.03937007874015748,0.07874015748031496,-0.08661417322834646,0.10236220472440945,-0.015748031496062992
11.231319308280945,-0.015748031496062992,0.0,0.007874015748031496,-0.023622047244094488,0.06299212598425197,0.007874015748031496,0.03937007874015748,0.0
11.235121250152588,-0.007874015748031496,0.007874015748031496,-0.007874015748031496,-0.023622047244094488,-0.29133858267716534,-0.1889763779527559,-0.18110236220472442,-0.023622047244094488
11.240020751953125,0.007874015748031496,0.0,-0.007874015748031496,0.0,-0.023622047244094488,0.11811023622047244,0.11811023622047244,0.03937007874015748
11.244920253753662,-0.007874015748031496,-0.031496062992125984,-0.015748031496062992,-0.007874015748031496,0.07874015748031496,-0.11811023622047244,0.16535433070866143,0.007874015748031496
11.251182675361633,-0.007874015748031496,-0.015748031496062992,-0.031496062992125984,-0.047244094488188976,-0.2992125984251969,-0.08661417322834646,-0.06299212598425197,0.0
11.257445096969604,0.0,0.0,-0.007874015748031496,0.015748031496062992,0.16535433070866143,0.03937007874015748,-0.007874015748031496,-0.007874015748031496
11.270159125328064,0.0,-0.007874015748031496,0.0,-0.007874015748031496,0.007874015748031496,-0.14960629921259844,0.12598425196850394,-0.023622047244094488
11.282873153686523,-0.023622047244094488,-0.007874015748031496,0.0,-0.015748031496062992,-0.1732283464566929,0.015748031496062992,-0.07874015748031496,-0.031496062992125984
11.283286571502686,-0.007874015748031496,0.007874015748031496,-0.007874015748031496,-0.015748031496062992,0.047244094488188976,-0.023622047244094488,0.0,-0.007874015748031496
11.283699989318848,0.007874015748031496,0.015748031496062992,0.0,-0.015748031496062992,-0.007874015748031496,-0.10236220472440945,-0.023622047244094488,-0.015748031496062992
11.285605549812317,0.0,0.0,-0.015748031496062992,0.023622047244094488,0.15748031496062992,0.031496062992125984,0.007874015748031496,0.015748031496062992
11.287511110305786,0.0,-0.007874015748031496,-0.007874015748031496,0.007874015748031496,0.2204724409448819,0.1968503937007874,-0.023622047244094488,-0.007874015748031496
11.291332125663757,0.0,-0.007874015748031496,-0.007874015748031496,0.007874015748031496,-0.14960629921259844,-0.12598425196850394,-0.07874015748031496,-0.007874015748031496
11.295153141021729,-0.007874015748031496,-0.007874015748031496,-0.007874015748031496,-0.03937007874015748,-0.2992125984251969,0.11023622047244094,-0.09448818897637795,-0.023622047244094488
11.299565076828003,-0.015748031496062992,-0.007874015748031496,-0.023622047244094488,-0.023622047244094488,-0.10236220472440945,-0.10236220472440945,0.0,-0.007874015748031496
11.303977012634277,-0.007874015748031496,0.0,-0.023622047244094488,-0.03937007874015748,-0.11811023622047244,-0.2283464566929134,-0.015748031496062992,-0.023622047244094488
11.310771107673645,0.0,0.015748031496062992,0.015748031496062992,0.047244094488188976,0.2440944881889764,0.2047244094488189,0.10236220472440945,0.031496062992125984
11.317565202713013,-0.015748031496062992,-0.007874015748031496,-0.023622047244094488,-0.015748031496062992,0.15748031496062992,0.14960629921259844,0.031496062992125984,0.015748031496062992
11.322041153907776,-0.023622047244094488,-0.007874015748031496,0.0,-0.007874015748031496,-0.13385826771653545,-0.11023622047244094,-0.15748031496062992,-0.047244094488188976
11.326517105102539,-0.007874015748031496,-0.015748031496062992,-0.015748031496062992,-0.015748031496062992,0.05511811023622047,0.0,-0.06299212598425197,-0.03937007874015748
11.333664059638977,-0.023622047244094488,-0.023622047244094488,-0.023622047244094488,-0.007874015748031496,-0.08661417322834646,-0.14173228346456693,0.07874015748031496,-0.015748031496062992
11.340811014175415,-0.015748031496062992,0.007874015748031496,-0.007874015748031496,0.0,0.08661417322834646,0.15748031496062992,0.047244094488188976,-0.015748031496062992
11.344186544418335,0.0,-0.015748031496062992,-0.007874015748031496,-0.023622047244094488,-0.10236220472440945,-0.05511811023622047,-0.015748031496062992,0.007874015748031496
11.347562074661255,-0.015748031496062992,-0.015748031496062992,-0.007874015748031496,-0.007874015748031496,-0.09448818897637795,-0.015748031496062992,-0.015748031496062992,-0.015748031496062992
11.35135006904602,0.007874015748031496,-0.007874015748031496,-0.007874015748031496,-0.015748031496062992,0.07874015748031496,0.0,-0.09448818897637795,-0.047244094488188976
11.355138063430786,0.0,0.007874015748031496,0.007874015748031496,0.047244094488188976,0.2125984251968504,0.03937007874015748,0.031496062992125984,0.015748031496062992
11.359682559967041,-0.007874015748031496,-0.007874015748031496,-0.007874015748031496,0.007874015748031496,0.11811023622047244,0.031496062992125984,0.023622047244094488,0.0
11.364227056503296,-0.007874015748031496,-0.007874015748031496,-0.015748031496062992,-0.007874015748031496,-0.16535433070866143,-0.2047244094488189,-0.015748031496062992,0.0
11.370944142341614,-0.015748031496062992,-0.015748031496062992,0.0,-0.023622047244094488,0.13385826771653545,0.11023622047244094,-0.10236220472440945,0.0
11.377661228179932,0.0,-0.015748031496062992,0.0,0.015748031496062992,0.07086614173228346,0.0,0.031496062992125984,-0.007874015748031496
11.382124781608582,-0.023622047244094488,-0.007874015748031496,-0.015748031496062992,-0.023622047244094488,-0.07086614173228346,-0.031496062992125984,-0.015748031496062992,-0.023622047244094488
11.386588335037231,0.007874015748031496,0.007874015748031496,0.0,0.023622047244094488,0.007874015748031496,-0.07874015748031496,0.007874015748031496,0.007874015748031496
11.38957929611206,-0.015748031496062992,-0.023622047244094488,-0.03937007874015748,-0.023622047244094488,0.2204724409448819,0.10236220472440945,0.015748031496062992,-0.007874015748031496
11.39257025718689,-0.015748031496062992,-0.023622047244094488,-0.023622047244094488,-0.047244094488188976,-0.4251968503937008,-0.09448818897637795,-0.06299212598425197,-0.007874015748031496
11.400083184242249,0.007874015748031496,0.0,0.0,0.0,-0.031496062992125984,0.07874015748031496,0.023622047244094488,-0.007874015748031496
11.407596111297607,0.0,-0.015748031496062992,-0.015748031496062992,-0.023622047244094488,0.0,0.09448818897637795,-0.07086614173228346,-0.007874015748031496
11.411397099494934,0.0,0.007874015748031496,0.007874015748031496,0.0,-0.14173228346456693,-0.07874015748031496,0.007874015748031496,0.015748031496062992
11.41519808769226,-0.015748031496062992,-0.007874015748031496,0.0,0.007874015748031496,0.015748031496062992,-0.10236220472440945,0.0,-0.007874015748031496
11.419748544692993,0.0,0.007874015748031496,0.015748031496062992,0.015748031496062992,0.14960629921259844,0.13385826771653545,-0.11023622047244094,0.0
11.424299001693726,0.0,-0.007874015748031496,0.0,0.015748031496062992,0.015748031496062992,-0.12598425196850394,0.2204724409448819,-0.007874015748031496
11.435356616973877,-0.007874015748031496,-0.015748031496062992,-0.015748031496062992,-0.047244094488188976,-0.5196850393700787,-0.1968503937007874,-0.03937007874015748,-0.023622047244094488
11.446414232254028,-0.023622047244094488,-0.015748031496062992,-0.023622047244094488,-0.031496062992125984,0.23622047244094488,-0.11811023622047244,-0.031496062992125984,-0.047244094488188976
11.447227597236633,0.0,-0.007874015748031496,-0.007874015748031496,0.015748031496062992,0.047244094488188976,0.07874015748031496,-0.023622047244094488,0.007874015748031496
11.448040962219238,-0.007874015748031496,-0.007874015748031496,-0.031496062992125984,-0.015748031496062992,0.07874015748031496,0.18110236220472442,-0.015748031496062992,0.007874015748031496
11.454372525215149,0.007874015748031496,0.0,0.007874015748031496,0.023622047244094488,0.1732283464566929,0.13385826771653545,0.07086614173228346,0.0
11.46070408821106,-0.015748031496062992,-0.015748031496062992,-0.031496062992125984,-0.06299212598425197,-0.13385826771653545,-0.33070866141732286,-0.06299212598425197,-0.031496062992125984
11.46422266960144,-0.007874015748031496,-0.007874015748031496,-0.015748031496062992,-0.023622047244094488,-0.2755905511811024,-0.23622047244094488,-0.015748031496062992,-0.007874015748031496
11.467741250991821,-0.007874015748031496,-0.007874015748031496,0.007874015748031496,0.007874015748031496,0.07086614173228346,0.1732283464566929,-0.007874015748031496,-0.023622047244094488
11.471452713012695,0.0,-0.023622047244094488,-0.007874015748031496,0.0,0.03937007874015748,0.031496062992125984,0.023622047244094488,0.007874015748031496
11.47516417503357,-0.015748031496062992,-0.007874015748031496,0.0,0.007874015748031496,0.0,0.11023622047244094,0.0,0.007874015748031496
11.482566237449646,0.0,-0.015748031496062992,0.0,0.0,0.11023622047244094,0.031496062992125984,0.14960629921259844,0.023622047244094488
11.489968299865723,-0.007874015748031496,0.0,-0.007874015748031496,-0.023622047244094488,-0.10236220472440945,-0.16535433070866143,-0.031496062992125984,0.0
11.493736147880554,-0.015748031496062992,0.007874015748031496,0.015748031496062992,0.015748031496062992,0.08661417322834646,0.023622047244094488,0.007874015748031496,-0.007874015748031496
11.497503995895386,0.0,-0.023622047244094488,0.0,0.007874015748031496,-0.047244094488188976,-0.047244094488188976,0.07086614173228346,0.0
11.50202465057373,0.007874015748031496,0.015748031496062992,0.007874015748031496,0.015748031496062992,0.09448818897637795,0.1968503937007874,0.3937007874015748,0.007874015748031496
11.506545305252075,0.0,0.0,-0.007874015748031496,0.023622047244094488,0.31496062992125984,0.03937007874015748,-0.015748031496062992,0.007874015748031496
11.513670802116394,-0.015748031496062992,0.0,0.0,-0.007874015748031496,-0.14173228346456693,-0.12598425196850394,-0.023622047244094488,-0.023622047244094488
11.520796298980713,0.015748031496062992,0.0,0.0,0.0,0.05511811023622047,0.10236220472440945,-0.05511811023622047,-0.015748031496062992
11.524131178855896,0.0,-0.007874015748031496,0.0,0.007874015748031496,0.023622047244094488,0.015748031496062992,-0.03937007874015748,0.007874015748031496
11.527466058731079,0.0,0.0,-0.007874015748031496,-0.031496062992125984,0.07086614173228346,-0.07086614173228346,0.023622047244094488,0.0
11.531269550323486,-0.007874015748031496,0.0,-0.007874015748031496,0.031496062992125984,0.3464566929133858,0.09448818897637795,0.031496062992125984,-0.015748031496062992
11.535073041915894,-0.015748031496062992,0.0,-0.023622047244094488,-0.03937007874015748,-0.4094488188976378,0.06299212598425197,-0.2755905511811024,-0.031496062992125984
11.543278694152832,-0.015748031496062992,0.0,0.015748031496062992,-0.007874015748031496,-0.031496062992125984,-0.07874015748031496,-0.07874015748031496,0.0
11.55148434638977,0.0,0.0,0.007874015748031496,0.015748031496062992,-0.07874015748031496,0.023622047244094488,0.007874015748031496,-0.015748031496062992
11.55447268486023,-0.023622047244094488,-0.023622047244094488,-0.031496062992125984,-0.031496062992125984,-0.015748031496062992,-0.08661417322834646,-0.03937007874015748,0.0
11.557461023330688,0.0,0.0,-0.007874015748031496,0.015748031496062992,0.11811023622047244,0.07086614173228346,0.031496062992125984,0.023622047244094488
11.562011003494263,-0.015748031496062992,-0.007874015748031496,-0.015748031496062992,-0.023622047244094488,-0.10236220472440945,0.031496062992125984,-0.09448818897637795,-0.031496062992125984
11.566560983657837,0.0,0.007874015748031496,-0.007874015748031496,-0.023622047244094488,-0.09448818897637795,-0.07874015748031496,-0.07874015748031496,0.0
11.57361650466919,0.007874015748031496,0.0,0.007874015748031496,0.0,-0.15748031496062992,-0.015748031496062992,-0.047244094488188976,-0.007874015748031496
11.580672025680542,0.015748031496062992,-0.007874015748031496,-0.007874015748031496,0.0,0.05511811023622047,0.031496062992125984,0.07086614173228346,0.023622047244094488
11.584028124809265,-0.007874015748031496,-0.007874015748031496,-0.007874015748031496,-0.007874015748031496,0.047244094488188976,0.05511811023622047,-0.03937007874015748,-0.015748031496062992
11.587384223937988,-0.007874015748031496,-0.007874015748031496,-0.015748031496062992,-0.007874015748031496,-0.11811023622047244,-0.07086614173228346,0.007874015748031496,-0.015748031496062992
11.595291137695312,0.0,0.007874015748031496,-0.007874015748031496,0.015748031496062992,0.11023622047244094,-0.03937007874015748,0.023622047244094488,0.0
11.603198051452637,0.0,0.0,0.007874015748031496,-0.007874015748031496,0.07086614173228346,0.14173228346456693,0.07874015748031496,0.007874015748031496
11.610696196556091,-0.023622047244094488,-0.023622047244094488,-0.023622047244094488,-0.031496062992125984,-0.007874015748031496,-0.03937007874015748,-0.06299212598425197,-0.015748031496062992
11.618194341659546,0.007874015748031496,0.007874015748031496,0.015748031496062992,0.007874015748031496,0.0,0.05511811023622047,0.007874015748031496,0.0
11.618582725524902,0.007874015748031496,0.0,0.0,0.007874015748031496,0.2047244094488189,0.031496062992125984,0.15748031496062992,0.007874015748031496
11.618971109390259,-0.007874015748031496,-0.007874015748031496,0.0,-0.031496062992125984,-0.1889763779527559,0.09448818897637795,0.047244094488188976,0.023622047244094488
11.62275767326355,-0.023622047244094488,-0.015748031496062992,-0.023622047244094488,-0.007874015748031496,-0.023622047244094488,-0.07874015748031496,-0.015748031496062992,-0.023622047244094488
11.62654423713684,0.015748031496062992,-0.007874015748031496,0.0,0.007874015748031496,0.1968503937007874,-0.06299212598425197,0.06299212598425197,0.0
11.633654236793518,-0.023622047244094488,-0.023622047244094488,-0.023622047244094488,-0.03937007874015748,-0.25984251968503935,0.047244094488188976,-0.007874015748031496,-0.015748031496062992
11.640764236450195,-0.007874015748031496,0.023622047244094488,0.007874015748031496,0.031496062992125984,0.11023622047244094,-0.047244094488188976,0.07086614173228346,0.023622047244094488
11.644116640090942,0.007874015748031496,0.0,-0.015748031496062992,0.0,-0.031496062992125984,0.031496062992125984,0.0,0.015748031496062992
11.64746904373169,-0.007874015748031496,-0.007874015748031496,0.0,0.007874015748031496,0.29133858267716534,0.14173228346456693,-0.047244094488188976,-0.007874015748031496
11.651292562484741,-0.007874015748031496,-0.015748031496062992,-0.007874015748031496,-0.03937007874015748,-0.05511811023622047,-0.11023622047244094,-0.08661417322834646,-0.031496062992125984
11.655116081237793,0.007874015748031496,0.0,0.0,-0.023622047244094488,-0.2677165354330709,-0.10236220472440945,-0.03937007874015748,-0.023622047244094488
11.666683554649353,-0.007874015748031496,0.007874015748031496,0.0,0.007874015748031496,0.047244094488188976,0.0,-0.015748031496062992,0.007874015748031496
11.678251028060913,-0.031496062992125984,-0.023622047244094488,-0.023622047244094488,-0.007874015748031496,-0.023622047244094488,0.14173228346456693,-0.09448818897637795,-0.007874015748031496
11.678604125976562,-0.007874015748031496,0.007874015748031496,0.0,0.015748031496062992,-0.007874015748031496,0.06299212598425197,0.05511811023622047,0.015748031496062992
11.678957223892212,-0.007874015748031496,-0.023622047244094488,-0.03937007874015748,-0.023622047244094488,0.0,-0.11811023622047244,0.015748031496062992,-0.023622047244094488
11.682798743247986,0.023622047244094488,0.0,0.007874015748031496,0.03937007874015748,0.25196850393700787,0.08661417322834646,0.023622047244094488,0.015748031496062992
11.68664026260376,-0.007874015748031496,-0.007874015748031496,-0.023622047244094488,-0.047244094488188976,-0.12598425196850394,-0.06299212598425197,-0.05511811023622047,0.0
11.693668723106384,-0.007874015748031496,-0.023622047244094488,-0.031496062992125984,-0.05511811023622047,-0.4015748031496063,-0.11023622047244094,-0.047244094488188976,-0.007874015748031496
11.700697183609009,0.007874015748031496,0.0,0.007874015748031496,0.023622047244094488,0.11811023622047244,-0.07874015748031496,-0.007874015748031496,-0.015748031496062992
11.704466104507446,0.007874015748031496,-0.023622047244094488,-0.015748031496062992,-0.007874015748031496,0.0,0.12598425196850394,0.023622047244094488,-0.007874015748031496
11.708235025405884,-0.007874015748031496,-0.015748031496062992,-0.015748031496062992,0.007874015748031496,0.007874015748031496,-0.015748031496062992,-0.007874015748031496,-0.007874015748031496
11.711641669273376,-0.007874015748031496,-0.007874015748031496,-0.007874015748031496,-0.015748031496062992,-0.031496062992125984,-0.015748031496062992,-0.07086614173228346,-0.031496062992125984
11.71504831314087,0.0,0.0,-0.007874015748031496,0.007874015748031496,0.1732283464566929,0.023622047244094488,0.03937007874015748,-0.023622047244094488
11.72252070903778,-0.015748031496062992,-0.03937007874015748,-0.015748031496062992,-0.047244094488188976,-0.28346456692913385,-0.3937007874015748,-0.10236220472440945,-0.047244094488188976
11.729993104934692,0.0,0.007874015748031496,0.007874015748031496,0.007874015748031496,-0.05511811023622047,0.07086614173228346,0.031496062992125984,-0.007874015748031496
11.733763217926025,-0.007874015748031496,-0.015748031496062992,-0.007874015748031496,-0.007874015748031496,-0.2283464566929134,-0.13385826771653545,0.2125984251968504,-0.023622047244094488
11.737533330917358,-0.007874015748031496,-0.007874015748031496,-0.015748031496062992,0.0,-0.015748031496062992,-0.05511811023622047,0.015748031496062992,-0.007874015748031496
11.742031216621399,-0.023622047244094488,-0.015748031496062992,-0.007874015748031496,-0.015748031496062992,0.11023622047244094,0.023622047244094488,-0.03937007874015748,-0.03937007874015748
11.74652910232544,-0.023622047244094488,-0.015748031496062992,-0.015748031496062992,-0.023622047244094488,-0.25196850393700787,-0.14960629921259844,0.031496062992125984,0.0
11.753624677658081,-0.007874015748031496,-0.023622047244094488,0.007874015748031496,0.023622047244094488,0.2283464566929134,0.2440944881889764,-0.06299212598425197,0.007874015748031496
11.760720252990723,-0.015748031496062992,-0.023622047244094488,-0.015748031496062992,-0.023622047244094488,-0.14173228346456693,0.0,-0.07874015748031496,-0.007874015748031496
11.764137744903564,0.0,0.0,0.0,-0.023622047244094488,-0.08661417322834646,-0.015748031496062992,0.0,-0.023622047244094488
11.767555236816406,0.007874015748031496,-0.007874015748031496,0.007874015748031496,0.0,0.03937007874015748,-0.007874015748031496,-0.007874015748031496,-0.007874015748031496
11.77162766456604,0.007874015748031496,0.007874015748031496,0.0,0.023622047244094488,0.18110236220472442,0.12598425196850394,-0.023622047244094488,0.0
11.775700092315674,0.007874015748031496,-0.007874015748031496,-0.007874015748031496,0.007874015748031496,-0.08661417322834646,0.10236220472440945,-0.015748031496062992,-0.015748031496062992
11.782843112945557,0.0,-0.015748031496062992,-0.023622047244094488,-0.015748031496062992,-0.09448818897637795,-0.047244094488188976,-0.07086614173228346,-0.007874015748031496
11.78998613357544,0.0,0.0,0.0,-0.007874015748031496,0.10236220472440945,0.015748031496062992,-0.007874015748031496,-0.023622047244094488
11.793704152107239,-0.007874015748031496,-0.007874015748031496,-0.007874015748031496,-0.023622047244094488,-0.3228346456692913,-0.12598425196850394,-0.031496062992125984,-0.031496062992125984
11.797422170639038,-0.015748031496062992,-0.007874015748031496,0.007874015748031496,0.0,0.10236220472440945,0.09448818897637795,-0.25196850393700787,0.0
11.801954627037048,-0.023622047244094488,0.0,-0.007874015748031496,-0.007874015748031496,0.0,-0.03937007874015748,0.03937007874015748,-0.007874015748031496
11.806487083435059,-0.007874015748031496,-0.007874015748031496,-0.007874015748031496,0.0,0.03937007874015748,0.12598425196850394,0.007874015748031496,-0.007874015748031496
11.813473582267761,0.0,-0.007874015748031496,-0.023622047244094488,-0.007874015748031496,0.023622047244094488,-0.015748031496062992,-0.047244094488188976,0.015748031496062992
11.820460081100464,-0.007874015748031496,-0.023622047244094488,-0.015748031496062992,-0.023622047244094488,0.06299212598425197,-0.007874015748031496,0.015748031496062992,0.0
11.824793100357056,-0.007874015748031496,0.0,0.015748031496062992,0.0,-0.14960629921259844,-0.06299212598425197,-0.031496062992125984,0.0
11.829126119613647,0.0,0.0,0.007874015748031496,0.023622047244094488,0.12598425196850394,-0.09448818897637795,-0.05511811023622047,-0.015748031496062992
11.83211064338684,-0.007874015748031496,0.0,-0.007874015748031496,-0.023622047244094488,0.05511811023622047,-0.06299212598425197,-0.06299212598425197,0.007874015748031496
11.835095167160034,0.007874015748031496,-0.007874015748031496,0.0,-0.015748031496062992,0.007874015748031496,0.0,0.0,-0.007874015748031496
11.842559218406677,0.0,-0.007874015748031496,0.007874015748031496,0.007874015748031496,0.031496062992125984,0.0,-0.015748031496062992,0.007874015748031496
11.85002326965332,0.0,-0.007874015748031496,0.0,-0.015748031496062992,0.07086614173228346,0.047244094488188976,0.18110236220472442,0.007874015748031496
11.85379421710968,0.007874015748031496,-0.007874015748031496,0.0,-0.023622047244094488,0.047244094488188976,-0.05511811023622047,0.06299212598425197,0.023622047244094488
11.85756516456604,-0.007874015748031496,0.0,0.007874015748031496,0.0,-0.047244094488188976,-0.015748031496062992,0.03937007874015748,-0.007874015748031496
11.862058162689209,-0.007874015748031496,-0.015748031496062992,-0.015748031496062992,-0.023622047244094488,0.06299212598425197,-0.031496062992125984,0.12598425196850394,-0.015748031496062992
11.866551160812378,-0.007874015748031496,-0.007874015748031496,-0.007874015748031496,-0.023622047244094488,-0.11023622047244094,0.023622047244094488,-0.06299212598425197,-0.007874015748031496
11.873650670051575,-0.015748031496062992,0.007874015748031496,0.007874015748031496,0.023622047244094488,0.09448818897637795,0.08661417322834646,-0.05511811023622047,-0.023622047244094488
11.880750179290771,-0.015748031496062992,-0.015748031496062992,-0.031496062992125984,-0.031496062992125984,-0.047244094488188976,-0.13385826771653545,0.047244094488188976,0.0
11.884154677391052,-0.007874015748031496,0.0,0.0,0.007874015748031496,0.05511811023622047,0.07086614173228346,-0.14173228346456693,-0.031496062992125984
11.887559175491333,0.007874015748031496,0.0,-0.007874015748031496,-0.007874015748031496,-0.015748031496062992,0.06299212598425197,0.023622047244094488,0.015748031496062992
11.891300678253174,0.007874015748031496,-0.007874015748031496,-0.007874015748031496,-0.015748031496062992,0.11023622047244094,-0.007874015748031496,0.0,0.007874015748031496
11.895042181015015,0.0,0.015748031496062992,0.0,0.023622047244094488,0.05511811023622047,0.047244094488188976,0.05511811023622047,0.0
11.90253221988678,-0.015748031496062992,-0.007874015748031496,0.0,0.015748031496062992,0.2125984251968504,0.09448818897637795,-0.007874015748031496,0.0
11.910022258758545,0.015748031496062992,0.0,-0.007874015748031496,-0.007874015748031496,-0.08661417322834646,-0.023622047244094488,0.031496062992125984,0.0
11.913821697235107,0.007874015748031496,0.0,-0.023622047244094488,-0.015748031496062992,0.2204724409448819,0.015748031496062992,-0.05511811023622047,0.0
11.91762113571167,-0.007874015748031496,-0.015748031496062992,0.015748031496062992,0.0,-0.06299212598425197,0.015748031496062992,0.07086614173228346,-0.007874015748031496
11.925793170928955,-0.023622047244094488,-0.007874015748031496,-0.023622047244094488,-0.007874015748031496,-0.047244094488188976,-0.06299212598425197,0.0,0.0
11.93396520614624,-0.023622047244094488,-0.015748031496062992,0.0,-0.015748031496062992,-0.047244094488188976,-0.06299212598425197,-0.10236220472440945,-0.007874015748031496
11.94161570072174,-0.023622047244094488,-0.015748031496062992,0.0,0.0,-0.13385826771653545,-0.015748031496062992,-0.05511811023622047,-0.015748031496062992
11.949266195297241,0.0,0.0,-0.015748031496062992,0.007874015748031496,0.1889763779527559,0.023622047244094488,-0.023622047244094488,-0.007874015748031496
11.95002567768097,0.007874015748031496,0.007874015748031496,0.007874015748031496,0.007874015748031496,-0.18110236220472442,0.16535433070866143,0.031496062992125984,0.023622047244094488
11.950785160064697,-0.007874015748031496,0.0,-0.015748031496062992,-0.06299212598425197,-0.25196850393700787,-0.05511811023622047,0.0,-0.015748031496062992
11.953018546104431,-0.015748031496062992,-0.007874015748031496,-0.015748031496062992,0.0,-0.05511811023622047,-0.07086614173228346,0.023622047244094488,0.0
11.955251932144165,-0.007874015748031496,0.0,0.0,0.015748031496062992,0.1889763779527559,0.14960629921259844,-0.007874015748031496,0.0
11.9626704454422,0.0,-0.015748031496062992,-0.007874015748031496,-0.015748031496062992,0.05511811023622047,0.05511811023622047,0.007874015748031496,-0.007874015748031496
11.970088958740234,-0.015748031496062992,-0.015748031496062992,-0.007874015748031496,0.015748031496062992,-0.06299212598425197,-0.031496062992125984,-0.03937007874015748,-0.015748031496062992
11.97384262084961,0.015748031496062992,0.015748031496062992,0.007874015748031496,0.007874015748031496,0.11811023622047244,0.2283464566929134,-0.12598425196850394,-0.007874015748031496
11.977596282958984,-0.023622047244094488,-0.015748031496062992,-0.015748031496062992,-0.05511811023622047,-0.2992125984251969,-0.28346456692913385,0.047244094488188976,-0.007874015748031496
11.982085704803467,-0.007874015748031496,-0.007874015748031496,-0.023622047244094488,0.0,-0.05511811023622047,-0.07874015748031496,-0.06299212598425197,-0.031496062992125984
11.98657512664795,0.0,-0.015748031496062992,-0.007874015748031496,0.0,-0.07086614173228346,-0.031496062992125984,-0.031496062992125984,-0.015748031496062992
12.00187861919403,-0.007874015748031496,0.0,-0.007874015748031496,-0.007874015748031496,0.07086614173228346,0.03937007874015748,-0.007874015748031496,-0.015748031496062992
12.017182111740112,0.007874015748031496,0.0,0.0,0.015748031496062992,0.11811023622047244,0.13385826771653545,0.023622047244094488,-0.015748031496062992
12.017980694770813,0.0,-0.007874015748031496,-0.007874015748031496,-0.047244094488188976,-0.23622047244094488,-0.08661417322834646,-0.031496062992125984,0.0
12.018779277801514,-0.007874015748031496,-0.007874015748031496,-0.007874015748031496,-0.015748031496062992,-0.031496062992125984,-0.09448818897637795,0.03937007874015748,0.007874015748031496
12.019152760505676,-0.007874015748031496,-0.007874015748031496,-0.031496062992125984,-0.007874015748031496,-0.07874015748031496,0.0,0.07086614173228346,-0.007874015748031496
12.019526243209839,-0.007874015748031496,-0.015748031496062992,-0.023622047244094488,-0.007874015748031496,-0.015748031496062992,-0.031496062992125984,-0.023622047244094488,-0.007874015748031496
12.024825692176819,-0.015748031496062992,-0.007874015748031496,-0.007874015748031496,-0.023622047244094488,0.11023622047244094,-0.03937007874015748,0.015748031496062992,0.0
12.030125141143799,-0.007874015748031496,-0.015748031496062992,-0.007874015748031496,0.015748031496062992,0.13385826771653545,0.18110236220472442,-0.007874015748031496,-0.015748031496062992
12.033815622329712,-0.007874015748031496,-0.015748031496062992,0.0,0.0,-0.08661417322834646,-0.015748031496062992,-0.13385826771653545,-0.007874015748031496
12.037506103515625,0.0,-0.015748031496062992,0.0,0.0,0.031496062992125984,-0.007874015748031496,-0.023622047244094488,-0.023622047244094488
12.045110583305359,-0.023622047244094488,0.0,-0.007874015748031496,-0.015748031496062992,0.1889763779527559,0.07874015748031496,-0.03937007874015748,0.007874015748031496
12.052715063095093,0.0,-0.015748031496062992,0.0,-0.031496062992125984,-0.1968503937007874,-0.14960629921259844,0.0,-0.015748031496062992
12.056657552719116,0.007874015748031496,0.0,0.007874015748031496,-0.007874015748031496,0.09448818897637795,0.08661417322834646,0.007874015748031496,-0.015748031496062992
12.06060004234314,-0.015748031496062992,0.0,-0.007874015748031496,-0.015748031496062992,-0.14173228346456693,-0.4015748031496063,-0.047244094488188976,-0.015748031496062992
12.064881563186646,0.015748031496062992,0.0,0.0,0.023622047244094488,0.09448818897637795,0.11811023622047244,0.0,-0.015748031496062992
12.069163084030151,-0.023622047244094488,-0.015748031496062992,-0.015748031496062992,0.0,0.08661417322834646,0.11811023622047244,0.015748031496062992,0.0
12.072192072868347,-0.015748031496062992,-0.023622047244094488,-0.015748031496062992,-0.031496062992125984,-0.2440944881889764,-0.1889763779527559,0.007874015748031496,-0.023622047244094488
12.075221061706543,-0.007874015748031496,-0.007874015748031496,0.0,-0.015748031496062992,-0.08661417322834646,0.1968503937007874,-0.03937007874015748,0.007874015748031496
12.082702994346619,0.0,-0.007874015748031496,-0.007874015748031496,-0.031496062992125984,-0.031496062992125984,-0.047244094488188976,0.023622047244094488,0.0
12.090184926986694,-0.007874015748031496,0.0,-0.007874015748031496,-0.015748031496062992,-0.023622047244094488,-0.047244094488188976,0.015748031496062992,0.0
12.093940019607544,0.0,0.023622047244094488,0.023622047244094488,0.023622047244094488,0.07086614173228346,0.05511811023622047,0.08661417322834646,-0.007874015748031496
12.097695112228394,-0.023622047244094488,-0.015748031496062992,-0.007874015748031496,-0.015748031496062992,0.09448818897637795,-0.007874015748031496,0.0,0.0
12.110395669937134,-0.007874015748031496,0.015748031496062992,-0.007874015748031496,0.023622047244094488,0.007874015748031496,0.03937007874015748,-0.015748031496062992,-0.007874015748031496
12.123096227645874,0.007874015748031496,-0.007874015748031496,0.015748031496062992,0.007874015748031496,-0.05511811023622047,-0.25196850393700787,0.18110236220472442,-0.023622047244094488
12.123490691184998,-0.015748031496062992,-0.031496062992125984,-0.015748031496062992,-0.015748031496062992,-0.25984251968503935,0.03937007874015748,0.07874015748031496,0.007874015748031496
12.123885154724121,-0.015748031496062992,-0.015748031496062992,0.0,-0.007874015748031496,0.06299212598425197,-0.047244094488188976,-0.047244094488188976,-0.015748031496062992
12.125812649726868,0.0,-0.015748031496062992,-0.007874015748031496,-0.023622047244094488,-0.12598425196850394,-0.11811023622047244,0.031496062992125984,-0.007874015748031496
12.127740144729614,0.007874015748031496,0.007874015748031496,0.0,0.007874015748031496,0.2047244094488189,0.2047244094488189,-0.07086614173228346,0.023622047244094488
12.13151204586029,-0.007874015748031496,-0.007874015748031496,-0.007874015748031496,-0.007874015748031496,-0.03937007874015748,-0.2204724409448819,-0.007874015748031496,-0.015748031496062992
12.135283946990967,-0.007874015748031496,-0.007874015748031496,-0.023622047244094488,0.0,0.047244094488188976,0.0,0.047244094488188976,0.0
12.146743535995483,-0.015748031496062992,0.0,0.0,0.023622047244094488,0.10236220472440945,0.03937007874015748,-0.015748031496062992,0.0
12.158203125,-0.015748031496062992,-0.015748031496062992,-0.007874015748031496,0.0,0.03937007874015748,-0.007874015748031496,-0.07874015748031496,-0.03937007874015748
12.158599615097046,-0.007874015748031496,0.007874015748031496,-0.007874015748031496,-0.015748031496062992,-0.015748031496062992,-0.023622047244094488,0.007874015748031496,0.007874015748031496
12.158996105194092,-0.007874015748031496,-0.007874015748031496,-0.007874015748031496,-0.007874015748031496,-0.015748031496062992,-0.007874015748031496,-0.047244094488188976,0.0
12.16578757762909,-0.007874015748031496,-0.015748031496062992,0.0,-0.015748031496062992,0.03937007874015748,-0.11023622047244094,-0.023622047244094488,-0.015748031496062992
12.172579050064087,0.0,-0.007874015748031496,-0.015748031496062992,0.0,0.007874015748031496,0.07086614173228346,0.0,-0.007874015748031496
12.176699042320251,-0.007874015748031496,-0.015748031496062992,-0.007874015748031496,-0.015748031496062992,0.15748031496062992,-0.12598425196850394,-0.10236220472440945,-0.015748031496062992
12.180819034576416,0.015748031496062992,0.023622047244094488,0.015748031496062992,0.023622047244094488,0.031496062992125984,0.023622047244094488,0.11811023622047244,0.015748031496062992
12.184293031692505,-0.007874015748031496,-0.015748031496062992,-0.007874015748031496,0.015748031496062992,-0.14173228346456693,0.007874015748031496,-0.031496062992125984,-0.015748031496062992
12.187767028808594,-0.007874015748031496,-0.015748031496062992,-0.007874015748031496,-0.007874015748031496,-0.015748031496062992,-0.15748031496062992,-0.03937007874015748,0.0
12.19147515296936,0.0,-0.023622047244094488,-0.023622047244094488,-0.047244094488188976,-0.18110236220472442,-0.14173228346456693,-0.03937007874015748,0.0
12.195183277130127,-0.015748031496062992,-0.015748031496062992,0.0,-0.007874015748031496,0.06299212598425197,0.10236220472440945,-0.031496062992125984,-0.023622047244094488
12.202676773071289,0.007874015748031496,-0.007874015748031496,-0.015748031496062992,-0.031496062992125984,-0.031496062992125984,-0.047244094488188976,-0.023622047244094488,0.0
12.210170269012451,-0.007874015748031496,0.007874015748031496,-0.007874015748031496,0.007874015748031496,-0.05511811023622047,0.06299212598425197,0.023622047244094488,0.0
12.213919162750244,0.007874015748031496,0.007874015748031496,0.015748031496062992,0.047244094488188976,0.25196850393700787,0.1732283464566929,0.06299212598425197,0.007874015748031496
12.217668056488037,-0.015748031496062992,-0.015748031496062992,-0.047244094488188976,-0.047244094488188976,-0.1968503937007874,0.023622047244094488,-0.07086614173228346,-0.031496062992125984
12.222162008285522,-0.015748031496062992,-0.007874015748031496,-0.015748031496062992,-0.015748031496062992,-0.10236220472440945,-0.07086614173228346,0.015748031496062992,-0.007874015748031496
12.226655960083008,-0.007874015748031496,0.0,0.0,0.0,-0.007874015748031496,0.007874015748031496,-0.031496062992125984,0.007874015748031496
12.233774065971375,0.0,-0.015748031496062992,0.007874015748031496,0.023622047244094488,0.2440944881889764,0.15748031496062992,0.047244094488188976,0.0
12.240892171859741,-0.007874015748031496,-0.015748031496062992,-0.015748031496062992,-0.03937007874015748,-0.2440944881889764,-0.10236220472440945,-0.11023622047244094,-0.015748031496062992
12.248304724693298,0.0,-0.007874015748031496,0.007874015748031496,0.015748031496062992,0.11023622047244094,0.18110236220472442,0.07874015748031496,0.0
12.255717277526855,-0.023622047244094488,0.0,-0.023622047244094488,-0.047244094488188976,-0.18110236220472442,0.0,-0.015748031496062992,-0.015748031496062992
12.256115198135376,-0.007874015748031496,0.0,-0.007874015748031496,-0.015748031496062992,-0.023622047244094488,0.08661417322834646,0.007874015748031496,-0.015748031496062992
12.256513118743896,-0.015748031496062992,-0.015748031496062992,0.0,-0.007874015748031496,-0.023622047244094488,-0.14173228346456693,-0.05511811023622047,-0.007874015748031496
12.263319611549377,-0.007874015748031496,-0.007874015748031496,-0.007874015748031496,0.007874015748031496,-0.015748031496062992,-0.07086614173228346,-0.05511811023622047,-0.007874015748031496
12.270126104354858,-0.007874015748031496,-0.023622047244094488,-0.031496062992125984,-0.007874015748031496,0.031496062992125984,0.031496062992125984,-0.047244094488188976,-0.023622047244094488
12.278354048728943,0.007874015748031496,-0.007874015748031496,-0.007874015748031496,0.0,-0.023622047244094488,0.09448818897637795,0.10236220472440945,0.031496062992125984
12.286581993103027,-0.007874015748031496,-0.007874015748031496,0.0,-0.007874015748031496,-0.11811023622047244,0.07874015748031496,0.0,-0.031496062992125984
12.287352561950684,0.0,-0.007874015748031496,0.0,-0.031496062992125984,-0.09448818897637795,-0.06299212598425197,-0.015748031496062992,0.007874015748031496
12.28812313079834,0.007874015748031496,-0.007874015748031496,0.015748031496062992,0.023622047244094488,0.07874015748031496,0.06299212598425197,0.031496062992125984,0.007874015748031496
12.29450011253357,-0.007874015748031496,-0.015748031496062992,0.0,0.0,0.08661417322834646,0.007874015748031496,-0.031496062992125984,0.007874015748031496
12.300877094268799,0.015748031496062992,0.015748031496062992,0.007874015748031496,0.023622047244094488,0.14960629921259844,0.023622047244094488,0.2755905511811024,0.023622047244094488
12.304194569587708,-0.007874015748031496,-0.023622047244094488,-0.015748031496062992,-0.047244094488188976,-0.1732283464566929,-0.14960629921259844,-0.023622047244094488,-0.023622047244094488
12.307512044906616,-0.015748031496062992,0.0,0.0,-0.007874015748031496,-0.031496062992125984,0.07874015748031496,-0.023622047244094488,-0.023622047244094488
12.311241149902344,0.0,-0.007874015748031496,-0.007874015748031496,-0.007874015748031496,-0.023622047244094488,-0.07086614173228346,-0.06299212598425197,-0.015748031496062992
12.314970254898071,-0.023622047244094488,-0.015748031496062992,0.0,0.023622047244094488,0.11023622047244094,0.07874015748031496,0.007874015748031496,0.0
12.322581171989441,0.0,0.0,-0.023622047244094488,-0.023622047244094488,0.14173228346456693,0.031496062992125984,-0.08661417322834646,-0.023622047244094488
12.33019208908081,-0.015748031496062992,-0.007874015748031496,-0.007874015748031496,-0.015748031496062992,0.07086614173228346,-0.06299212598425197,-0.015748031496062992,-0.007874015748031496
12.333866119384766,-0.007874015748031496,-0.007874015748031496,-0.015748031496062992,-0.015748031496062992,-0.2204724409448819,-0.16535433070866143,-0.031496062992125984,-0.03937007874015748
12.33754014968872,-0.007874015748031496,-0.007874015748031496,-0.015748031496062992,0.007874015748031496,0.0,0.0,-0.07874015748031496,-0.023622047244094488
12.342042684555054,-0.015748031496062992,-0.007874015748031496,-0.015748031496062992,-0.015748031496062992,-0.023622047244094488,-0.023622047244094488,-0.031496062992125984,0.0
12.346545219421387,-0.007874015748031496,-0.007874015748031496,0.0,0.023622047244094488,0.14173228346456693,0.03937007874015748,-0.031496062992125984,0.015748031496062992
12.353597640991211,-0.031496062992125984,-0.007874015748031496,-0.023622047244094488,-0.05511811023622047,-0.3464566929133858,-0.1968503937007874,-0.03937007874015748,-0.023622047244094488
12.360650062561035,0.015748031496062992,0.007874015748031496,0.015748031496062992,0.03937007874015748,0.1732283464566929,0.14960629921259844,0.015748031496062992,0.007874015748031496
12.364109635353088,-0.007874015748031496,-0.015748031496062992,-0.031496062992125984,-0.023622047244094488,-0.2677165354330709,-0.14173228346456693,-0.023622047244094488,-0.023622047244094488
12.367569208145142,0.0,-0.007874015748031496,-0.015748031496062992,-0.015748031496062992,0.023622047244094488,0.08661417322834646,-0.023622047244094488,-0.007874015748031496
12.375415563583374,-0.023622047244094488,0.015748031496062992,0.007874015748031496,0.015748031496062992,0.06299212598425197,0.14173228346456693,-0.25984251968503935,-0.03937007874015748
12.383261919021606,0.007874015748031496,-0.007874015748031496,-0.015748031496062992,-0.031496062992125984,-0.06299212598425197,-0.1732283464566929,0.0,0.007874015748031496
12.390711545944214,-0.007874015748031496,0.0,0.0,0.015748031496062992,0.14173228346456693,0.18110236220472442,0.023622047244094488,0.0
12.398161172866821,0.0,-0.007874015748031496,-0.007874015748031496,-0.023622047244094488,-0.14960629921259844,-0.07086614173228346,0.007874015748031496,-0.007874015748031496
12.398561239242554,-0.007874015748031496,-0.015748031496062992,-0.015748031496062992,-0.007874015748031496,0.007874015748031496,-0.03937007874015748,0.023622047244094488,0.0
12.398961305618286,0.0,0.0,0.0,0.015748031496062992,0.09448818897637795,0.05511811023622047,-0.023622047244094488,0.007874015748031496
12.405752182006836,-0.007874015748031496,0.007874015748031496,0.007874015748031496,0.0,0.16535433070866143,-0.031496062992125984,-0.031496062992125984,0.0
12.412543058395386,-0.007874015748031496,0.0,-0.023622047244094488,-0.023622047244094488,-0.08661417322834646,-0.047244094488188976,-0.015748031496062992,-0.015748031496062992
12.416643500328064,0.0,-0.007874015748031496,-0.007874015748031496,0.007874015748031496,0.12598425196850394,-0.023622047244094488,0.10236220472440945,0.023622047244094488
12.420743942260742,-0.015748031496062992,-0.023622047244094488,-0.015748031496062992,-0.023622047244094488,-0.28346456692913385,-0.14173228346456693,-0.03937007874015748,0.007874015748031496
12.424152493476868,-0.007874015748031496,0.007874015748031496,0.015748031496062992,0.047244094488188976,0.3858267716535433,0.23622047244094488,0.07874015748031496,0.0
12.427561044692993,0.0,-0.015748031496062992,-0.015748031496062992,-0.03937007874015748,-0.30708661417322836,-0.2283464566929134,-0.023622047244094488,-0.007874015748031496
12.435264110565186,-0.015748031496062992,-0.007874015748031496,0.0,-0.007874015748031496,-0.03937007874015748,-0.14960629921259844,0.0,-0.023622047244094488
12.442967176437378,0.0,-0.007874015748031496,-0.007874015748031496,-0.015748031496062992,0.11023622047244094,0.0,-0.023622047244094488,-0.007874015748031496
12.447229623794556,0.0,0.0,0.0,0.015748031496062992,0.0,0.10236220472440945,-0.06299212598425197,0.0
12.451492071151733,-0.015748031496062992,0.0,0.007874015748031496,0.015748031496062992,0.11023622047244094,0.05511811023622047,0.10236220472440945,-0.015748031496062992
12.458587169647217,0.015748031496062992,-0.007874015748031496,0.0,0.007874015748031496,0.047244094488188976,0.06299212598425197,0.047244094488188976,0.0
12.4656822681427,-0.007874015748031496,0.0,-0.023622047244094488,-0.015748031496062992,-0.015748031496062992,-0.07874015748031496,-0.007874015748031496,-0.015748031496062992
12.469110250473022,0.0,0.0,0.0,0.015748031496062992,0.2047244094488189,0.05511811023622047,-0.031496062992125984,0.0
12.472538232803345,0.0,0.007874015748031496,0.0,-0.015748031496062992,-0.2283464566929134,0.06299212598425197,-0.007874015748031496,0.015748031496062992
12.476670145988464,0.0,0.0,-0.015748031496062992,0.015748031496062992,0.03937007874015748,0.06299212598425197,0.05511811023622047,0.0
12.480802059173584,-0.015748031496062992,-0.023622047244094488,-0.031496062992125984,-0.047244094488188976,-0.05511811023622047,0.031496062992125984,0.023622047244094488,-0.03937007874015748
12.48792815208435,-0.007874015748031496,-0.007874015748031496,0.0,-0.015748031496062992,-0.023622047244094488,-0.007874015748031496,0.047244094488188976,0.007874015748031496
12.495054244995117,0.007874015748031496,0.007874015748031496,0.0,0.023622047244094488,0.10236220472440945,-0.031496062992125984,-0.047244094488188976,-0.007874015748031496
12.499135255813599,-0.015748031496062992,-0.007874015748031496,-0.007874015748031496,-0.023622047244094488,-0.015748031496062992,-0.03937007874015748,0.007874015748031496,-0.007874015748031496
12.50321626663208,0.007874015748031496,0.007874015748031496,0.007874015748031496,0.015748031496062992,0.13385826771653545,0.2677165354330709,-0.023622047244094488,0.0
12.506628155708313,-0.007874015748031496,-0.023622047244094488,-0.007874015748031496,-0.031496062992125984,-0.2047244094488189,-0.13385826771653545,-0.03937007874015748,-0.031496062992125984
12.510040044784546,-0.015748031496062992,-0.015748031496062992,-0.023622047244094488,-0.023622047244094488,0.05511811023622047,-0.015748031496062992,-0.06299212598425197,-0.007874015748031496
12.513859152793884,-0.007874015748031496,-0.015748031496062992,0.0,0.007874015748031496,-0.03937007874015748,0.03937007874015748,-0.3464566929133858,-0.03937007874015748
12.517678260803223,-0.007874015748031496,0.0,-0.007874015748031496,-0.015748031496062992,0.03937007874015748,-0.047244094488188976,0.07086614173228346,0.007874015748031496
12.52579915523529,-0.007874015748031496,0.0,-0.007874015748031496,-0.015748031496062992,-0.16535433070866143,-0.047244094488188976,-0.007874015748031496,-0.031496062992125984
12.533920049667358,0.0,-0.007874015748031496,0.0,-0.007874015748031496,0.023622047244094488,-0.03937007874015748,0.031496062992125984,0.007874015748031496
12.537298679351807,0.007874015748031496,0.007874015748031496,0.007874015748031496,0.03937007874015748,0.1732283464566929,0.047244094488188976,0.047244094488188976,0.007874015748031496
12.540677309036255,0.015748031496062992,0.0,0.0,-0.031496062992125984,-0.047244094488188976,-0.047244094488188976,0.03937007874015748,0.007874015748031496
12.54414165019989,-0.015748031496062992,0.0,-0.007874015748031496,-0.007874015748031496,-0.09448818897637795,-0.10236220472440945,-0.007874015748031496,-0.007874015748031496
12.547605991363525,-0.007874015748031496,-0.007874015748031496,-0.015748031496062992,-0.007874015748031496,0.03937007874015748,0.12598425196850394,-0.047244094488188976,-0.007874015748031496
12.555451512336731,-0.007874015748031496,-0.007874015748031496,0.007874015748031496,-0.031496062992125984,-0.047244094488188976,-0.08661417322834646,0.047244094488188976,0.0
12.563297033309937,-0.023622047244094488,-0.007874015748031496,0.0,0.007874015748031496,0.14173228346456693,0.023622047244094488,-0.031496062992125984,-0.015748031496062992
12.56667411327362,0.007874015748031496,-0.007874015748031496,-0.015748031496062992,-0.023622047244094488,-0.25984251968503935,-0.08661417322834646,0.03937007874015748,0.007874015748031496
12.570051193237305,0.007874015748031496,0.007874015748031496,0.0,0.007874015748031496,0.08661417322834646,0.13385826771653545,0.007874015748031496,-0.015748031496062992
12.573797225952148,0.0,-0.007874015748031496,-0.015748031496062992,-0.015748031496062992,-0.05511811023622047,0.031496062992125984,0.03937007874015748,0.015748031496062992
12.577543258666992,-0.007874015748031496,0.0,0.007874015748031496,0.0,-0.07086614173228346,0.03937007874015748,0.14960629921259844,-0.015748031496062992
12.585089802742004,0.0,0.007874015748031496,0.0,-0.007874015748031496,-0.007874015748031496,-0.031496062992125984,-0.015748031496062992,0.007874015748031496
12.592636346817017,-0.015748031496062992,-0.007874015748031496,0.0,0.0,-0.023622047244094488,-0.16535433070866143,-0.03937007874015748,-0.015748031496062992
12.596699237823486,0.007874015748031496,0.015748031496062992,0.007874015748031496,0.03937007874015748,0.25984251968503935,0.14173228346456693,0.16535433070866143,0.007874015748031496
12.600762128829956,-0.015748031496062992,-0.015748031496062992,-0.015748031496062992,-0.031496062992125984,-0.3937007874015748,-0.05511811023622047,-0.11023622047244094,-0.007874015748031496
12.604167103767395,-0.007874015748031496,-0.023622047244094488,-0.015748031496062992,-0.023622047244094488,0.10236220472440945,0.023622047244094488,-0.023622047244094488,0.007874015748031496
12.607572078704834,0.0,-0.007874015748031496,-0.015748031496062992,-0.015748031496062992,0.03937007874015748,0.15748031496062992,0.015748031496062992,0.0
12.615448117256165,0.0,0.0,-0.015748031496062992,-0.023622047244094488,-0.10236220472440945,-0.08661417322834646,-0.007874015748031496,0.0
12.623324155807495,-0.007874015748031496,-0.015748031496062992,-0.015748031496062992,0.015748031496062992,0.1889763779527559,0.05511811023622047,-0.015748031496062992,0.0
12.626659154891968,-0.007874015748031496,-0.007874015748031496,-0.015748031496062992,0.007874015748031496,0.007874015748031496,-0.05511811023622047,-0.015748031496062992,-0.023622047244094488
12.62999415397644,-0.015748031496062992,-0.007874015748031496,0.0,-0.023622047244094488,-0.1732283464566929,-0.2283464566929134,-0.047244094488188976,-0.007874015748031496
12.633769631385803,-0.015748031496062992,-0.015748031496062992,-0.031496062992125984,-0.05511811023622047,0.015748031496062992,0.0,-0.031496062992125984,-0.023622047244094488
12.637545108795166,-0.007874015748031496,-0.007874015748031496,-0.007874015748031496,-0.023622047244094488,-0.023622047244094488,-0.06299212598425197,-0.07874015748031496,-0.015748031496062992
12.65309464931488,-0.007874015748031496,0.0,-0.015748031496062992,-0.023622047244094488,-0.09448818897637795,-0.023622047244094488,0.031496062992125984,-0.007874015748031496
12.668644189834595,-0.015748031496062992,-0.007874015748031496,0.0,0.031496062992125984,0.1889763779527559,0.031496062992125984,-0.05511811023622047,0.007874015748031496
12.669002175331116,-0.015748031496062992,-0.015748031496062992,-0.015748031496062992,-0.031496062992125984,-0.33858267716535434,-0.07874015748031496,0.0,0.007874015748031496
12.669360160827637,-0.007874015748031496,0.007874015748031496,0.0,-0.007874015748031496,0.047244094488188976,-0.05511811023622047,-0.16535433070866143,-0.023622047244094488
12.6729496717453,0.0,-0.007874015748031496,0.0,0.023622047244094488,0.07874015748031496,-0.031496062992125984,0.047244094488188976,0.0
12.676539182662964,0.0,0.0,0.0,0.007874015748031496,0.06299212598425197,0.08661417322834646,0.023622047244094488,0.007874015748031496
12.679879069328308,-0.007874015748031496,0.0,-0.007874015748031496,-0.03937007874015748,-0.25984251968503935,-0.2283464566929134,-0.015748031496062992,-0.007874015748031496
12.683218955993652,0.0,-0.007874015748031496,-0.015748031496062992,0.015748031496062992,0.09448818897637795,0.05511811023622047,-0.031496062992125984,-0.007874015748031496
12.68673050403595,0.0,-0.007874015748031496,0.0,0.007874015748031496,-0.015748031496062992,0.07086614173228346,-0.015748031496062992,0.007874015748031496
12.690242052078247,0.0,0.007874015748031496,-0.007874015748031496,-0.015748031496062992,-0.047244094488188976,-0.07874015748031496,-0.015748031496062992,-0.03937007874015748
12.693886637687683,0.007874015748031496,0.0,0.007874015748031496,0.015748031496062992,0.015748031496062992,0.031496062992125984,0.015748031496062992,-0.007874015748031496
12.69753122329712,0.0,0.0,-0.007874015748031496,0.015748031496062992,0.23622047244094488,0.13385826771653545,0.05511811023622047,0.015748031496062992
12.705039739608765,0.0,-0.007874015748031496,-0.007874015748031496,0.007874015748031496,-0.07086614173228346,-0.08661417322834646,-0.03937007874015748,-0.007874015748031496
12.71254825592041,-0.015748031496062992,-0.023622047244094488,-0.007874015748031496,-0.015748031496062992,-0.023622047244094488,-0.007874015748031496,0.015748031496062992,-0.007874015748031496
12.720705151557922,-0.023622047244094488,-0.007874015748031496,-0.007874015748031496,0.007874015748031496,0.10236220472440945,0.05511811023622047,-0.015748031496062992,0.007874015748031496
12.728862047195435,0.0,0.007874015748031496,0.0,0.015748031496062992,0.16535433070866143,0.07086614173228346,0.047244094488188976,0.0
12.729669570922852,-0.023622047244094488,-0.023622047244094488,-0.015748031496062992,-0.06299212598425197,-0.4015748031496063,-0.14173228346456693,-0.05511811023622047,-0.023622047244094488
12.730477094650269,0.0,0.0,0.0,0.0,0.1732283464566929,0.08661417322834646,-0.007874015748031496,0.0
12.736921191215515,-0.007874015748031496,-0.007874015748031496,0.023622047244094488,-0.015748031496062992,-0.2125984251968504,0.07874015748031496,0.015748031496062992,-0.015748031496062992
12.743365287780762,-0.007874015748031496,-0.007874015748031496,-0.015748031496062992,-0.015748031496062992,-0.07086614173228346,-0.11811023622047244,0.0,-0.015748031496062992
12.746795773506165,-0.023622047244094488,-0.007874015748031496,-0.007874015748031496,0.007874015748031496,0.14960629921259844,0.10236220472440945,0.015748031496062992,-0.007874015748031496
12.750226259231567,-0.007874015748031496,0.0,-0.007874015748031496,0.0,-0.06299212598425197,-0.06299212598425197,-0.007874015748031496,0.0
12.753888726234436,-0.007874015748031496,-0.007874015748031496,-0.015748031496062992,0.0,0.07086614173228346,0.05511811023622047,-0.007874015748031496,-0.015748031496062992
12.757551193237305,-0.023622047244094488,-0.015748031496062992,-0.015748031496062992,-0.007874015748031496,-0.14960629921259844,-0.14960629921259844,0.0,-0.015748031496062992
12.765121102333069,0.0,-0.015748031496062992,-0.007874015748031496,-0.015748031496062992,0.07086614173228346,0.06299212598425197,-0.023622047244094488,-0.015748031496062992
12.772691011428833,0.0,0.007874015748031496,-0.007874015748031496,-0.015748031496062992,0.007874015748031496,-0.09448818897637795,0.0,0.015748031496062992
12.776767611503601,0.0,-0.007874015748031496,-0.015748031496062992,0.0,0.09448818897637795,0.06299212598425197,0.007874015748031496,-0.015748031496062992
12.78084421157837,-0.007874015748031496,-0.015748031496062992,0.0,-0.007874015748031496,-0.047244094488188976,-0.05511811023622047,-0.031496062992125984,-0.007874015748031496
12.784204125404358,-0.007874015748031496,-0.007874015748031496,0.0,0.023622047244094488,0.08661417322834646,-0.031496062992125984,0.0,-0.007874015748031496
12.787564039230347,-0.015748031496062992,-0.007874015748031496,-0.015748031496062992,-0.007874015748031496,0.015748031496062992,0.09448818897637795,0.007874015748031496,-0.007874015748031496
12.79560661315918,0.0,0.0,-0.007874015748031496,-0.007874015748031496,0.06299212598425197,-0.08661417322834646,0.015748031496062992,-0.007874015748031496
12.803649187088013,0.007874015748031496,-0.007874015748031496,0.015748031496062992,-0.007874015748031496,-0.09448818897637795,-0.07086614173228346,0.0,0.0
12.807681679725647,0.015748031496062992,0.0,0.0,0.007874015748031496,0.047244094488188976,0.03937007874015748,-0.007874015748031496,0.007874015748031496
12.811714172363281,-0.007874015748031496,-0.023622047244094488,-0.023622047244094488,-0.007874015748031496,-0.09448818897637795,-0.09448818897637795,-0.05511811023622047,-0.015748031496062992
12.814674615859985,-0.015748031496062992,-0.007874015748031496,0.0,0.007874015748031496,0.29133858267716534,-0.06299212598425197,0.0,-0.007874015748031496
12.81763505935669,0.0,0.0,-0.023622047244094488,-0.023622047244094488,-0.2125984251968504,0.2204724409448819,0.023622047244094488,0.007874015748031496
12.825130701065063,0.0,-0.007874015748031496,-0.007874015748031496,0.0,-0.031496062992125984,-0.047244094488188976,0.015748031496062992,0.007874015748031496
12.832626342773438,-0.015748031496062992,-0.023622047244094488,-0.031496062992125984,-0.03937007874015748,0.03937007874015748,0.031496062992125984,-0.03937007874015748,-0.023622047244094488
12.836744666099548,0.007874015748031496,0.007874015748031496,0.007874015748031496,0.015748031496062992,0.05511811023622047,-0.047244094488188976,0.0,0.007874015748031496
12.84086298942566,-0.007874015748031496,0.015748031496062992,0.0,-0.007874015748031496,-0.06299212598425197,0.11811023622047244,0.0,-0.015748031496062992
12.844263553619385,-0.007874015748031496,-0.007874015748031496,-0.007874015748031496,0.0,-0.007874015748031496,0.023622047244094488,0.0,0.0
12.84766411781311,0.0,-0.007874015748031496,0.007874015748031496,0.007874015748031496,-0.023622047244094488,-0.047244094488188976,0.0,0.0
12.855498194694519,-0.007874015748031496,-0.015748031496062992,-0.015748031496062992,-0.03937007874015748,-0.13385826771653545,0.05511811023622047,-0.007874015748031496,-0.015748031496062992
12.863332271575928,-0.015748031496062992,-0.023622047244094488,0.0,0.0,0.03937007874015748,-0.031496062992125984,-0.031496062992125984,-0.015748031496062992
12.866761684417725,-0.007874015748031496,0.0,0.007874015748031496,0.007874015748031496,0.18110236220472442,-0.023622047244094488,-0.023622047244094488,-0.015748031496062992
12.870191097259521,0.0,-0.015748031496062992,0.0,-0.023622047244094488,-0.23622047244094488,0.11023622047244094,0.023622047244094488,0.007874015748031496
12.873905062675476,-0.007874015748031496,-0.023622047244094488,-0.031496062992125984,-0.047244094488188976,-0.03937007874015748,-0.1732283464566929,-0.05511811023622047,-0.023622047244094488
12.87761902809143,-0.007874015748031496,-0.007874015748031496,0.0,0.007874015748031496,0.015748031496062992,0.0,0.0,0.0
12.885873079299927,-0.023622047244094488,-0.031496062992125984,-0.023622047244094488,-0.03937007874015748,0.031496062992125984,-0.07874015748031496,-0.031496062992125984,-0.007874015748031496
12.894127130508423,0.0,0.0,0.0,0.023622047244094488,0.1732283464566929,0.0,0.007874015748031496,0.007874015748031496
12.89742362499237,-0.007874015748031496,0.0,-0.007874015748031496,0.0,-0.08661417322834646,-0.023622047244094488,0.015748031496062992,-0.007874015748031496
12.900720119476318,-0.007874015748031496,0.0,-0.031496062992125984,-0.03937007874015748,-0.07086614173228346,-0.14173228346456693,-0.023622047244094488,-0.031496062992125984
12.90414559841156,0.007874015748031496,0.0,0.007874015748031496,0.007874015748031496,-0.007874015748031496,0.07874015748031496,0.023622047244094488,0.0
12.907571077346802,-0.015748031496062992,-0.007874015748031496,0.0,-0.007874015748031496,0.047244094488188976,-0.11811023622047244,-0.031496062992125984,-0.031496062992125984
12.915493130683899,-0.007874015748031496,-0.015748031496062992,0.007874015748031496,0.007874015748031496,-0.015748031496062992,-0.07086614173228346,-0.015748031496062992,0.0
12.923415184020996,-0.007874015748031496,-0.015748031496062992,-0.007874015748031496,-0.047244094488188976,-0.2204724409448819,-0.09448818897637795,-0.03937007874015748,-0.007874015748031496
12.930809140205383,-0.023622047244094488,0.0,-0.007874015748031496,0.015748031496062992,0.031496062992125984,0.023622047244094488,-0.007874015748031496,-0.007874015748031496
12.93820309638977,-0.007874015748031496,0.0,-0.015748031496062992,-0.007874015748031496,-0.11023622047244094,-0.14173228346456693,0.0,0.007874015748031496
12.938627123832703,0.007874015748031496,0.007874015748031496,-0.015748031496062992,0.007874015748031496,0.047244094488188976,0.15748031496062992,0.03937007874015748,0.023622047244094488
12.939051151275635,0.0,-0.007874015748031496,0.0,0.015748031496062992,0.12598425196850394,-0.007874015748031496,-0.007874015748031496,0.007874015748031496
12.945880651473999,-0.007874015748031496,0.0,-0.007874015748031496,-0.023622047244094488,-0.03937007874015748,-0.007874015748031496,0.0,-0.007874015748031496
12.952710151672363,-0.007874015748031496,-0.031496062992125984,-0.015748031496062992,-0.023622047244094488,-0.015748031496062992,0.03937007874015748,0.0,-0.023622047244094488
12.956783175468445,-0.007874015748031496,-0.007874015748031496,-0.007874015748031496,-0.015748031496062992,-0.023622047244094488,0.0,0.023622047244094488,-0.015748031496062992
12.960856199264526,0.0,0.007874015748031496,0.007874015748031496,0.023622047244094488,0.023622047244094488,-0.015748031496062992,0.015748031496062992,0.015748031496062992
12.964274644851685,0.0,0.007874015748031496,-0.007874015748031496,0.0,-0.015748031496062992,0.03937007874015748,-0.007874015748031496,-0.007874015748031496
12.967693090438843,0.0,0.0,0.0,0.031496062992125984,0.08661417322834646,0.047244094488188976,-0.015748031496062992,0.007874015748031496
12.975514650344849,-0.015748031496062992,-0.007874015748031496,-0.023622047244094488,-0.06299212598425197,-0.2204724409448819,-0.07086614173228346,-0.05511811023622047,-0.031496062992125984
12.983336210250854,0.007874015748031496,0.0,0.0,0.007874015748031496,0.047244094488188976,-0.023622047244094488,0.015748031496062992,0.0
12.991233706474304,0.007874015748031496,-0.007874015748031496,0.0,-0.015748031496062992,0.023622047244094488,-0.023622047244094488,0.007874015748031496,0.0
12.999131202697754,-0.007874015748031496,-0.023622047244094488,-0.015748031496062992,-0.015748031496062992,0.06299212598425197,0.11023622047244094,0.0,-0.007874015748031496
12.999285221099854,-0.007874015748031496,-0.007874015748031496,-0.007874015748031496,-0.015748031496062992,-0.36220472440944884,-0.1889763779527559,-0.031496062992125984,-0.015748031496062992
12.999439239501953,-0.023622047244094488,-0.015748031496062992,-0.03937007874015748,-0.047244094488188976,-0.08661417322834646,0.05511811023622047,-0.023622047244094488,-0.031496062992125984
13.006094217300415,-0.007874015748031496,0.0,-0.007874015748031496,0.007874015748031496,-0.007874015748031496,-0.047244094488188976,0.023622047244094488,0.007874015748031496
13.012749195098877,0.0,0.0,-0.007874015748031496,0.015748031496062992,-0.03937007874015748,0.031496062992125984,0.023622047244094488,0.007874015748031496
13.016807198524475,0.0,-0.023622047244094488,-0.007874015748031496,-0.007874015748031496,0.07874015748031496,0.14173228346456693,0.0,0.0
13.020865201950073,0.0,-0.007874015748031496,0.0,0.007874015748031496,0.09448818897637795,-0.25984251968503935,-0.007874015748031496,0.0
13.024276733398438,-0.015748031496062992,-0.007874015748031496,-0.007874015748031496,-0.015748031496062992,0.05511811023622047,0.047244094488188976,-0.031496062992125984,-0.007874015748031496
13.027688264846802,0.0,0.0,0.007874015748031496,-0.015748031496062992,-0.13385826771653545,-0.08661417322834646,-0.007874015748031496,-0.007874015748031496
13.03550374507904,0.0,0.0,0.007874015748031496,0.031496062992125984,0.29133858267716534,0.25196850393700787,-0.007874015748031496,-0.007874015748031496
13.04331922531128,0.0,0.007874015748031496,0.0,-0.015748031496062992,-0.2440944881889764,0.023622047244094488,0.03937007874015748,-0.007874015748031496
13.046731114387512,-0.023622047244094488,-0.023622047244094488,-0.023622047244094488,-0.031496062992125984,0.031496062992125984,-0.1889763779527559,-0.05511811023622047,-0.023622047244094488
13.050143003463745,-0.015748031496062992,-0.007874015748031496,0.0,-0.007874015748031496,0.1889763779527559,0.0,-0.06299212598425197,-0.015748031496062992
13.053876996040344,0.0,0.007874015748031496,0.015748031496062992,0.023622047244094488,0.10236220472440945,0.031496062992125984,-0.047244094488188976,-0.007874015748031496
13.057610988616943,-0.007874015748031496,-0.015748031496062992,-0.015748031496062992,-0.007874015748031496,-0.031496062992125984,-0.015748031496062992,0.0,0.007874015748031496
13.065837025642395,-0.007874015748031496,-0.015748031496062992,0.0,-0.015748031496062992,-0.031496062992125984,0.0,0.007874015748031496,-0.007874015748031496
13.074063062667847,-0.007874015748031496,0.0,0.0,-0.031496062992125984,-0.023622047244094488,0.023622047244094488,-0.007874015748031496,-0.007874015748031496
13.077239036560059,0.007874015748031496,0.0,0.0,0.007874015748031496,0.06299212598425197,0.015748031496062992,0.007874015748031496,0.007874015748031496
13.08041501045227,-0.015748031496062992,-0.015748031496062992,-0.015748031496062992,-0.015748031496062992,0.03937007874015748,-0.08661417322834646,-0.03937007874015748,-0.023622047244094488
13.08478307723999,0.0,0.015748031496062992,-0.007874015748031496,0.007874015748031496,-0.08661417322834646,0.0,0.0,0.0
13.08915114402771,-0.007874015748031496,0.007874015748031496,-0.023622047244094488,-0.031496062992125984,-0.09448818897637795,-0.08661417322834646,-0.007874015748031496,-0.015748031496062992
13.096460103988647,0.0,-0.015748031496062992,-0.007874015748031496,0.007874015748031496,0.05511811023622047,0.13385826771653545,0.031496062992125984,0.007874015748031496
13.103769063949585,-0.007874015748031496,-0.007874015748031496,0.015748031496062992,0.0,-0.031496062992125984,-0.09448818897637795,0.015748031496062992,0.0
13.110980153083801,-0.007874015748031496,-0.007874015748031496,-0.007874015748031496,0.0,0.047244094488188976,0.09448818897637795,-0.015748031496062992,0.0
13.118191242218018,0.015748031496062992,-0.015748031496062992,-0.007874015748031496,-0.007874015748031496,-0.03937007874015748,-0.031496062992125984,0.023622047244094488,0.0
13.118645787239075,-0.023622047244094488,0.007874015748031496,0.007874015748031496,0.031496062992125984,-0.031496062992125984,-0.13385826771653545,-0.031496062992125984,-0.023622047244094488
13.119100332260132,-0.007874015748031496,-0.015748031496062992,-0.007874015748031496,0.0,0.1889763779527559,0.15748031496062992,0.015748031496062992,-0.007874015748031496
13.130238771438599,-0.015748031496062992,-0.007874015748031496,0.0,-0.031496062992125984,-0.10236220472440945,-0.09448818897637795,-0.015748031496062992,-0.015748031496062992
13.141377210617065,-0.007874015748031496,0.0,-0.007874015748031496,-0.023622047244094488,-0.023622047244094488,0.12598425196850394,0.015748031496062992,0.015748031496062992
13.141734600067139,-0.007874015748031496,-0.015748031496062992,-0.007874015748031496,-0.015748031496062992,0.03937007874015748,-0.08661417322834646,-0.015748031496062992,-0.007874015748031496
13.142091989517212,0.0,0.0,-0.007874015748031496,0.007874015748031496,0.14960629921259844,-0.10236220472440945,-0.047244094488188976,-0.03937007874015748
13.144808530807495,0.007874015748031496,-0.007874015748031496,-0.007874015748031496,0.015748031496062992,-0.047244094488188976,0.09448818897637795,0.031496062992125984,-0.007874015748031496
13.147525072097778,-0.007874015748031496,-0.015748031496062992,-0.015748031496062992,-0.007874015748031496,-0.11811023622047244,-0.12598425196850394,-0.05511811023622047,-0.031496062992125984
13.155365586280823,-0.007874015748031496,-0.015748031496062992,-0.023622047244094488,-0.031496062992125984,0.023622047244094488,-0.07086614173228346,-0.007874015748031496,-0.015748031496062992
13.163206100463867,0.015748031496062992,0.015748031496062992,0.007874015748031496,0.015748031496062992,0.05511811023622047,0.2440944881889764,0.015748031496062992,0.023622047244094488
13.166605591773987,0.007874015748031496,0.007874015748031496,0.007874015748031496,0.03937007874015748,0.1732283464566929,0.11811023622047244,0.023622047244094488,0.007874015748031496
13.170005083084106,-0.023622047244094488,-0.023622047244094488,-0.03937007874015748,-0.047244094488188976,-0.14173228346456693,-0.08661417322834646,-0.05511811023622047,-0.06299212598425197
13.173736691474915,0.007874015748031496,0.0,0.0,0.007874015748031496,-0.015748031496062992,0.08661417322834646,0.03937007874015748,0.015748031496062992
13.177468299865723,0.0,0.0,-0.007874015748031496,-0.007874015748031496,-0.06299212598425197,0.07874015748031496,0.015748031496062992,0.015748031496062992
13.184982299804688,0.0,0.007874015748031496,0.007874015748031496,0.023622047244094488,0.07086614173228346,0.031496062992125984,-0.007874015748031496,-0.007874015748031496
13.192496299743652,0.007874015748031496,0.007874015748031496,0.015748031496062992,0.031496062992125984,-0.10236220472440945,0.031496062992125984,0.0,-0.007874015748031496
13.196916699409485,0.007874015748031496,-0.007874015748031496,-0.031496062992125984,-0.03937007874015748,-0.08661417322834646,-0.07086614173228346,-0.023622047244094488,-0.015748031496062992
13.201337099075317,-0.007874015748031496,-0.023622047244094488,-0.007874015748031496,-0.015748031496062992,0.0,0.023622047244094488,-0.015748031496062992,-0.007874015748031496
13.20442259311676,-0.015748031496062992,-0.007874015748031496,0.007874015748031496,-0.015748031496062992,-0.031496062992125984,-0.05511811023622047,0.007874015748031496,-0.007874015748031496
13.207508087158203,-0.007874015748031496,0.0,0.015748031496062992,0.023622047244094488,0.08661417322834646,0.007874015748031496,-0.007874015748031496,0.007874015748031496
13.21947467327118,-0.007874015748031496,-0.023622047244094488,-0.023622047244094488,-0.031496062992125984,-0.11023622047244094,0.0,-0.023622047244094488,-0.007874015748031496
13.231441259384155,0.0,-0.007874015748031496,-0.007874015748031496,0.0,0.007874015748031496,-0.05511811023622047,-0.023622047244094488,0.0
13.232219696044922,-0.015748031496062992,-0.007874015748031496,-0.015748031496062992,0.0,-0.047244094488188976,0.023622047244094488,-0.015748031496062992,-0.015748031496062992
13.232998132705688,0.0,0.0,-0.007874015748031496,-0.007874015748031496,0.0,-0.05511811023622047,-0.023622047244094488,-0.007874015748031496
13.23520565032959,-0.007874015748031496,0.007874015748031496,-0.007874015748031496,-0.015748031496062992,0.11811023622047244,-0.09448818897637795,0.0,0.007874015748031496
13.237413167953491,-0.007874015748031496,0.0,0.007874015748031496,0.0,0.11023622047244094,0.06299212598425197,-0.007874015748031496,-0.015748031496062992
13.24492061138153,0.0,-0.03937007874015748,-0.03937007874015748,-0.07874015748031496,-0.3228346456692913,-0.12598425196850394,-0.07086614173228346,-0.03937007874015748
13.25242805480957,-0.015748031496062992,0.0,0.015748031496062992,0.007874015748031496,0.06299212598425197,0.023622047244094488,-0.007874015748031496,-0.007874015748031496
13.256593585014343,0.0,-0.015748031496062992,-0.007874015748031496,0.015748031496062992,0.047244094488188976,-0.023622047244094488,0.0,-0.007874015748031496
13.260759115219116,-0.007874015748031496,-0.007874015748031496,-0.007874015748031496,0.007874015748031496,0.03937007874015748,-0.15748031496062992,-0.007874015748031496,-0.007874015748031496
13.264290690422058,-0.007874015748031496,-0.007874015748031496,-0.007874015748031496,0.007874015748031496,0.031496062992125984,-0.007874015748031496,0.047244094488188976,0.015748031496062992
13.267822265625,-0.007874015748031496,-0.015748031496062992,-0.007874015748031496,-0.007874015748031496,-0.015748031496062992,-0.03937007874015748,-0.015748031496062992,0.0
13.275572776794434,0.0,-0.007874015748031496,-0.007874015748031496,-0.023622047244094488,0.031496062992125984,0.10236220472440945,0.015748031496062992,-0.015748031496062992
13.283323287963867,0.007874015748031496,-0.007874015748031496,0.007874015748031496,0.0,-0.023622047244094488,0.015748031496062992,-0.05511811023622047,-0.015748031496062992
13.286632180213928,0.007874015748031496,0.0,0.007874015748031496,0.0,-0.11811023622047244,-0.03937007874015748,0.023622047244094488,-0.007874015748031496
13.28994107246399,0.0,-0.007874015748031496,-0.015748031496062992,-0.007874015748031496,0.2204724409448819,-0.14173228346456693,-0.015748031496062992,-0.015748031496062992
13.293673157691956,-0.015748031496062992,-0.015748031496062992,-0.015748031496062992,-0.031496062992125984,-0.36220472440944884,0.023622047244094488,-0.031496062992125984,-0.015748031496062992
13.297405242919922,-0.007874015748031496,-0.007874015748031496,-0.023622047244094488,0.0,0.031496062992125984,-0.031496062992125984,0.015748031496062992,0.007874015748031496
13.304974675178528,0.0,-0.007874015748031496,-0.015748031496062992,-0.023622047244094488,-0.13385826771653545,-0.047244094488188976,-0.015748031496062992,0.0
13.312544107437134,0.007874015748031496,0.0,0.007874015748031496,0.015748031496062992,0.09448818897637795,0.14173228346456693,0.023622047244094488,0.0
13.316628098487854,0.0,-0.015748031496062992,0.0,0.007874015748031496,0.03937007874015748,0.047244094488188976,0.0,-0.007874015748031496
13.320712089538574,-0.015748031496062992,-0.015748031496062992,-0.007874015748031496,-0.015748031496062992,-0.047244094488188976,-0.16535433070866143,0.0,-0.007874015748031496
13.332296013832092,-0.015748031496062992,-0.007874015748031496,-0.015748031496062992,-0.015748031496062992,0.047244094488188976,0.07086614173228346,-0.007874015748031496,-0.007874015748031496
13.34387993812561,-0.007874015748031496,0.0,0.0,-0.023622047244094488,-0.14173228346456693,-0.05511811023622047,0.0,-0.015748031496062992
13.344295978546143,-0.007874015748031496,-0.015748031496062992,-0.015748031496062992,0.0,0.007874015748031496,0.0,-0.007874015748031496,-0.007874015748031496
13.344712018966675,0.0,-0.007874015748031496,-0.007874015748031496,0.0,-0.13385826771653545,-0.007874015748031496,0.031496062992125984,0.0
13.347336530685425,-0.007874015748031496,-0.023622047244094488,-0.015748031496062992,0.0,0.1968503937007874,0.015748031496062992,-0.015748031496062992,-0.023622047244094488
13.349961042404175,-0.007874015748031496,0.0,-0.007874015748031496,0.0,-0.25984251968503935,-0.10236220472440945,0.015748031496062992,0.0
13.357831597328186,0.0,0.0,0.015748031496062992,0.007874015748031496,0.2047244094488189,0.007874015748031496,0.007874015748031496,0.007874015748031496
13.365702152252197,-0.031496062992125984,0.0,-0.007874015748031496,0.0,-0.015748031496062992,0.07874015748031496,0.007874015748031496,0.0
13.369104623794556,0.0,0.0,0.007874015748031496,0.007874015748031496,-0.015748031496062992,0.047244094488188976,-0.047244094488188976,0.007874015748031496
13.372507095336914,-0.015748031496062992,0.007874015748031496,-0.015748031496062992,-0.007874015748031496,0.023622047244094488,0.10236220472440945,0.023622047244094488,-0.007874015748031496
13.37661361694336,-0.007874015748031496,0.007874015748031496,0.015748031496062992,0.015748031496062992,0.10236220472440945,-0.08661417322834646,-0.023622047244094488,-0.007874015748031496
13.380720138549805,-0.007874015748031496,-0.023622047244094488,-0.007874015748031496,-0.007874015748031496,-0.03937007874015748,-0.047244094488188976,-0.023622047244094488,-0.007874015748031496
13.39233112335205,0.0,-0.015748031496062992,-0.023622047244094488,-0.023622047244094488,0.2047244094488189,0.08661417322834646,-0.007874015748031496,0.0
13.403942108154297,0.007874015748031496,0.0,-0.015748031496062992,-0.023622047244094488,-0.18110236220472442,0.07874015748031496,-0.015748031496062992,-0.015748031496062992
13.404303073883057,-0.007874015748031496,-0.007874015748031496,-0.015748031496062992,0.0,-0.05511811023622047,-0.09448818897637795,-0.023622047244094488,-0.015748031496062992
13.404664039611816,0.0,-0.007874015748031496,0.007874015748031496,0.015748031496062992,0.047244094488188976,0.14960629921259844,0.0,-0.015748031496062992
13.407294631004333,0.0,-0.007874015748031496,-0.015748031496062992,-0.015748031496062992,-0.023622047244094488,-0.07874015748031496,-0.047244094488188976,-0.023622047244094488
13.40992522239685,-0.015748031496062992,-0.031496062992125984,-0.015748031496062992,-0.007874015748031496,0.06299212598425197,0.047244094488188976,-0.007874015748031496,-0.015748031496062992
13.417829751968384,-0.015748031496062992,-0.015748031496062992,-0.007874015748031496,-0.03937007874015748,-0.2283464566929134,-0.07874015748031496,0.023622047244094488,-0.023622047244094488
13.425734281539917,0.0,0.007874015748031496,-0.007874015748031496,-0.015748031496062992,-0.031496062992125984,0.18110236220472442,0.031496062992125984,0.0
13.433443188667297,-0.023622047244094488,-0.023622047244094488,0.0,0.0,-0.047244094488188976,-0.015748031496062992,0.015748031496062992,0.0
13.441152095794678,0.007874015748031496,-0.023622047244094488,0.0,0.0,0.09448818897637795,-0.015748031496062992,0.007874015748031496,0.007874015748031496
13.441504120826721,-0.015748031496062992,-0.007874015748031496,-0.007874015748031496,0.023622047244094488,0.07086614173228346,0.031496062992125984,-0.015748031496062992,-0.015748031496062992
13.441856145858765,-0.007874015748031496,0.007874015748031496,-0.015748031496062992,-0.03937007874015748,-0.2125984251968504,-0.047244094488188976,-0.047244094488188976,0.0
13.44845962524414,0.0,-0.007874015748031496,-0.007874015748031496,-0.007874015748031496,-0.07086614173228346,-0.2125984251968504,0.0,0.0
13.455063104629517,-0.015748031496062992,0.0,-0.023622047244094488,-0.031496062992125984,0.07874015748031496,0.06299212598425197,0.031496062992125984,0.007874015748031496
13.459160089492798,-0.007874015748031496,0.0,-0.015748031496062992,-0.015748031496062992,-0.047244094488188976,-0.007874015748031496,-0.015748031496062992,0.007874015748031496
13.463257074356079,0.007874015748031496,-0.015748031496062992,0.0,0.023622047244094488,0.11023622047244094,-0.03937007874015748,0.047244094488188976,-0.007874015748031496
13.470410704612732,0.007874015748031496,0.007874015748031496,0.007874015748031496,0.007874015748031496,0.14960629921259844,0.06299212598425197,0.0,0.0
13.477564334869385,-0.031496062992125984,-0.023622047244094488,-0.031496062992125984,-0.047244094488188976,-0.2755905511811024,-0.23622047244094488,-0.03937007874015748,-0.023622047244094488
13.481520295143127,0.0,-0.007874015748031496,-0.007874015748031496,-0.007874015748031496,0.05511811023622047,0.05511811023622047,0.0,0.0
13.48547625541687,0.0,0.0,-0.007874015748031496,-0.007874015748031496,0.07874015748031496,0.11023622047244094,0.0,0.0
13.494175672531128,-0.007874015748031496,-0.007874015748031496,-0.015748031496062992,-0.023622047244094488,-0.09448818897637795,-0.23622047244094488,-0.031496062992125984,-0.023622047244094488
13.502875089645386,0.007874015748031496,0.0,0.0,0.023622047244094488,0.15748031496062992,0.05511811023622047,-0.007874015748031496,0.0
13.503256559371948,-0.007874015748031496,0.007874015748031496,0.0,-0.007874015748031496,-0.015748031496062992,0.05511811023622047,0.023622047244094488,0.015748031496062992
13.50363802909851,-0.023622047244094488,0.0,-0.023622047244094488,-0.023622047244094488,0.031496062992125984,-0.10236220472440945,-0.047244094488188976,-0.023622047244094488
13.509371042251587,-0.015748031496062992,-0.023622047244094488,-0.015748031496062992,-0.023622047244094488,-0.25196850393700787,0.007874015748031496,-0.015748031496062992,-0.007874015748031496
13.515104055404663,0.0,0.015748031496062992,0.023622047244094488,0.007874015748031496,0.07874015748031496,0.05511811023622047,0.007874015748031496,0.0
13.519153594970703,0.007874015748031496,-0.015748031496062992,-0.015748031496062992,-0.015748031496062992,-0.07086614173228346,-0.15748031496062992,-0.015748031496062992,0.0
13.523203134536743,0.007874015748031496,-0.007874015748031496,0.007874015748031496,0.0,0.015748031496062992,-0.007874015748031496,0.007874015748031496,0.0
13.526644706726074,-0.015748031496062992,0.007874015748031496,-0.023622047244094488,-0.007874015748031496,0.1732283464566929,0.031496062992125984,0.007874015748031496,-0.023622047244094488
13.530086278915405,-0.015748031496062992,-0.007874015748031496,-0.007874015748031496,0.0,-0.10236220472440945,-0.031496062992125984,-0.031496062992125984,-0.031496062992125984
13.53788673877716,-0.015748031496062992,0.007874015748031496,0.0,0.007874015748031496,-0.047244094488188976,0.023622047244094488,-0.023622047244094488,-0.015748031496062992
13.545687198638916,0.007874015748031496,0.0,-0.015748031496062992,0.0,0.10236220472440945,0.05511811023622047,-0.007874015748031496,-0.007874015748031496
13.549168586730957,-0.007874015748031496,-0.007874015748031496,0.0,-0.023622047244094488,0.031496062992125984,0.03937007874015748,-0.015748031496062992,-0.007874015748031496
13.552649974822998,0.0,-0.007874015748031496,0.0,0.0,0.06299212598425197,0.06299212598425197,-0.03937007874015748,0.0
13.556686997413635,-0.031496062992125984,0.007874015748031496,0.0,-0.007874015748031496,0.07086614173228346,0.11023622047244094,0.03937007874015748,-0.007874015748031496
13.560724020004272,0.0,-0.015748031496062992,-0.007874015748031496,0.015748031496062992,0.007874015748031496,-0.07874015748031496,-0.023622047244094488,0.007874015748031496
13.567901134490967,-0.015748031496062992,0.007874015748031496,0.0,-0.023622047244094488,-0.25984251968503935,-0.007874015748031496,-0.015748031496062992,-0.015748031496062992
13.575078248977661,-0.007874015748031496,-0.007874015748031496,-0.015748031496062992,-0.023622047244094488,0.047244094488188976,-0.031496062992125984,0.0,-0.015748031496062992
13.579172134399414,0.0,-0.007874015748031496,0.0,0.0,-0.007874015748031496,0.031496062992125984,0.015748031496062992,0.0
13.583266019821167,-0.015748031496062992,-0.007874015748031496,-0.015748031496062992,-0.023622047244094488,0.15748031496062992,-0.05511811023622047,-0.023622047244094488,-0.023622047244094488
13.58664858341217,0.0,-0.007874015748031496,-0.015748031496062992,-0.015748031496062992,-0.07086614173228346,-0.05511811023622047,0.0,0.007874015748031496
13.590031147003174,-0.015748031496062992,0.0,0.007874015748031496,0.0,0.0,-0.06299212598425197,-0.015748031496062992,0.0
13.597861647605896,0.007874015748031496,-0.031496062992125984,-0.007874015748031496,-0.007874015748031496,-0.05511811023622047,0.023622047244094488,-0.015748031496062992,0.0
13.605692148208618,-0.023622047244094488,-0.007874015748031496,-0.015748031496062992,-0.015748031496062992,-0.05511811023622047,-0.12598425196850394,-0.031496062992125984,0.0
13.613521695137024,0.0,-0.015748031496062992,-0.007874015748031496,0.007874015748031496,0.08661417322834646,0.16535433070866143,0.0,-0.015748031496062992
13.62135124206543,-0.007874015748031496,0.0,-0.007874015748031496,0.0,0.031496062992125984,0.05511811023622047,-0.015748031496062992,-0.007874015748031496
13.62179172039032,0.007874015748031496,0.0,-0.007874015748031496,-0.015748031496062992,-0.13385826771653545,-0.007874015748031496,0.007874015748031496,0.023622047244094488
13.62223219871521,0.0,-0.015748031496062992,0.0,0.0,-0.09448818897637795,-0.007874015748031496,0.007874015748031496,-0.015748031496062992
13.628822088241577,-0.007874015748031496,-0.007874015748031496,-0.015748031496062992,0.007874015748031496,0.1732283464566929,0.031496062992125984,0.007874015748031496,0.0
13.635411977767944,0.007874015748031496,-0.007874015748031496,0.007874015748031496,-0.007874015748031496,-0.2755905511811024,0.11811023622047244,0.015748031496062992,0.0
13.639350533485413,-0.015748031496062992,-0.031496062992125984,-0.031496062992125984,-0.047244094488188976,-0.03937007874015748,-0.2204724409448819,-0.09448818897637795,-0.047244094488188976
13.64328908920288,0.0,0.0,-0.007874015748031496,-0.015748031496062992,-0.05511811023622047,0.03937007874015748,0.007874015748031496,0.0
13.646637082099915,-0.007874015748031496,0.0,0.007874015748031496,0.007874015748031496,0.13385826771653545,0.05511811023622047,0.007874015748031496,-0.007874015748031496
13.649985074996948,0.0,-0.007874015748031496,0.0,0.0,-0.06299212598425197,-0.031496062992125984,0.023622047244094488,0.023622047244094488
13.666333675384521,-0.015748031496062992,0.015748031496062992,0.015748031496062992,0.015748031496062992,0.13385826771653545,0.14173228346456693,-0.023622047244094488,-0.03937007874015748
13.682682275772095,-0.023622047244094488,-0.015748031496062992,-0.015748031496062992,-0.031496062992125984,-0.30708661417322836,-0.2283464566929134,-0.03937007874015748,-0.023622047244094488
13.683502197265625,-0.007874015748031496,0.0,0.0,0.015748031496062992,0.13385826771653545,0.07086614173228346,-0.031496062992125984,0.0
13.684322118759155,0.0,0.015748031496062992,-0.007874015748031496,0.007874015748031496,0.11811023622047244,-0.07874015748031496,0.015748031496062992,0.007874015748031496
13.684659123420715,0.0,-0.007874015748031496,-0.015748031496062992,-0.007874015748031496,0.10236220472440945,0.023622047244094488,0.0,0.0
13.684996128082275,-0.007874015748031496,-0.015748031496062992,-0.015748031496062992,-0.023622047244094488,-0.16535433070866143,0.07086614173228346,0.015748031496062992,0.0
13.689996600151062,0.015748031496062992,0.0,0.0,0.007874015748031496,0.15748031496062992,0.25196850393700787,0.031496062992125984,0.007874015748031496
13.694997072219849,-0.015748031496062992,0.0,0.007874015748031496,0.0,-0.11811023622047244,-0.03937007874015748,-0.015748031496062992,-0.007874015748031496
13.70321011543274,-0.015748031496062992,-0.007874015748031496,-0.015748031496062992,-0.031496062992125984,-0.31496062992125984,-0.1968503937007874,-0.047244094488188976,-0.015748031496062992
13.71142315864563,0.0,0.0,0.015748031496062992,0.015748031496062992,0.1732283464566929,0.047244094488188976,0.0,-0.007874015748031496
13.71222174167633,0.007874015748031496,0.007874015748031496,0.007874015748031496,0.0,0.031496062992125984,0.007874015748031496,0.007874015748031496,0.007874015748031496
13.713020324707031,-0.007874015748031496,-0.007874015748031496,-0.007874015748031496,-0.007874015748031496,-0.05511811023622047,-0.06299212598425197,-0.023622047244094488,-0.015748031496062992
13.719357132911682,0.007874015748031496,0.0,0.0,0.015748031496062992,0.14173228346456693,0.031496062992125984,-0.007874015748031496,0.0
13.725693941116333,0.0,-0.007874015748031496,-0.007874015748031496,-0.015748031496062992,0.007874015748031496,-0.06299212598425197,-0.007874015748031496,-0.007874015748031496
13.72910749912262,-0.015748031496062992,-0.015748031496062992,-0.015748031496062992,-0.031496062992125984,-0.1968503937007874,-0.07874015748031496,-0.015748031496062992,-0.007874015748031496
13.732521057128906,0.0,0.0,0.0,0.023622047244094488,0.1968503937007874,0.047244094488188976,0.0,-0.007874015748031496
13.740334033966064,-0.007874015748031496,-0.015748031496062992,-0.007874015748031496,-0.03937007874015748,-0.031496062992125984,-0.023622047244094488,-0.031496062992125984,0.0
13.748147010803223,-0.031496062992125984,-0.023622047244094488,-0.031496062992125984,-0.031496062992125984,-0.031496062992125984,-0.12598425196850394,-0.047244094488188976,-0.031496062992125984
13.751545548439026,0.0,-0.007874015748031496,0.007874015748031496,0.015748031496062992,-0.08661417322834646,-0.11023622047244094,-0.007874015748031496,-0.015748031496062992
13.754944086074829,-0.007874015748031496,-0.023622047244094488,-0.023622047244094488,-0.023622047244094488,0.06299212598425197,0.11811023622047244,0.007874015748031496,-0.007874015748031496
13.763164162635803,0.007874015748031496,0.0,-0.007874015748031496,0.015748031496062992,0.14960629921259844,0.015748031496062992,0.031496062992125984,0.015748031496062992
13.771384239196777,0.0,0.0,0.007874015748031496,0.007874015748031496,-0.023622047244094488,0.007874015748031496,0.007874015748031496,0.007874015748031496
13.77216923236847,0.0,-0.007874015748031496,0.0,0.015748031496062992,0.10236220472440945,0.12598425196850394,-0.007874015748031496,0.007874015748031496
13.772954225540161,-0.023622047244094488,-0.015748031496062992,-0.015748031496062992,-0.03937007874015748,-0.1968503937007874,-0.18110236220472442,-0.06299212598425197,-0.023622047244094488
13.779337167739868,-0.015748031496062992,-0.007874015748031496,0.0,0.023622047244094488,0.13385826771653545,0.05511811023622047,0.023622047244094488,0.0
13.785720109939575,-0.015748031496062992,0.0,-0.007874015748031496,-0.007874015748031496,-0.03937007874015748,0.0,0.0,0.0
13.789198637008667,-0.015748031496062992,-0.007874015748031496,0.0,-0.007874015748031496,-0.11023622047244094,-0.06299212598425197,-0.023622047244094488,-0.007874015748031496
13.792677164077759,0.007874015748031496,0.015748031496062992,0.007874015748031496,0.015748031496062992,0.2283464566929134,0.13385826771653545,0.015748031496062992,-0.007874015748031496
13.800905704498291,0.0,-0.015748031496062992,-0.015748031496062992,-0.015748031496062992,-0.06299212598425197,-0.08661417322834646,-0.031496062992125984,-0.031496062992125984
13.809134244918823,-0.015748031496062992,-0.007874015748031496,0.0,0.007874015748031496,0.07874015748031496,0.05511811023622047,0.007874015748031496,-0.007874015748031496
13.812173128128052,0.0,-0.015748031496062992,-0.023622047244094488,-0.015748031496062992,-0.12598425196850394,-0.1889763779527559,-0.015748031496062992,0.0
13.81521201133728,-0.015748031496062992,-0.007874015748031496,0.0,0.015748031496062992,0.1732283464566929,0.11023622047244094,0.03937007874015748,0.007874015748031496
13.819635152816772,-0.015748031496062992,-0.007874015748031496,-0.007874015748031496,-0.007874015748031496,-0.10236220472440945,0.03937007874015748,-0.007874015748031496,0.0
13.824058294296265,0.007874015748031496,-0.007874015748031496,-0.007874015748031496,0.015748031496062992,0.06299212598425197,0.0,0.007874015748031496,-0.015748031496062992
13.830831289291382,-0.015748031496062992,-0.023622047244094488,-0.015748031496062992,-0.06299212598425197,-0.2677165354330709,-0.1732283464566929,-0.03937007874015748,-0.031496062992125984
13.837604284286499,0.0,-0.023622047244094488,0.0,0.015748031496062992,0.14173228346456693,-0.03937007874015748,0.0,0.007874015748031496
13.8421151638031,-0.007874015748031496,-0.007874015748031496,0.0,-0.031496062992125984,-0.12598425196850394,0.08661417322834646,0.015748031496062992,0.007874015748031496
13.846626043319702,-0.007874015748031496,0.0,0.0,-0.015748031496062992,-0.03937007874015748,-0.03937007874015748,-0.015748031496062992,-0.007874015748031496
13.849628567695618,-0.015748031496062992,-0.007874015748031496,-0.007874015748031496,-0.015748031496062992,-0.023622047244094488,0.07086614173228346,0.015748031496062992,-0.007874015748031496
13.852631092071533,0.0,0.0,-0.007874015748031496,-0.007874015748031496,-0.03937007874015748,-0.03937007874015748,-0.007874015748031496,-0.007874015748031496
13.860876083374023,-0.015748031496062992,-0.015748031496062992,-0.015748031496062992,0.0,0.023622047244094488,0.0,0.0,-0.015748031496062992
13.869121074676514,0.007874015748031496,0.0,0.007874015748031496,0.015748031496062992,0.1968503937007874,0.2440944881889764,0.047244094488188976,0.023622047244094488
13.872130632400513,-0.023622047244094488,-0.023622047244094488,-0.031496062992125984,-0.047244094488188976,-0.16535433070866143,-0.047244094488188976,-0.07874015748031496,-0.031496062992125984
13.875140190124512,-0.031496062992125984,-0.015748031496062992,-0.007874015748031496,-0.023622047244094488,-0.05511811023622047,0.007874015748031496,-0.03937007874015748,-0.007874015748031496
13.879671096801758,0.007874015748031496,0.0,-0.007874015748031496,-0.007874015748031496,-0.023622047244094488,-0.06299212598425197,0.0,0.007874015748031496
13.884202003479004,0.007874015748031496,-0.007874015748031496,-0.015748031496062992,-0.015748031496062992,-0.047244094488188976,-0.10236220472440945,-0.03937007874015748,0.0
13.887186050415039,0.0,0.023622047244094488,0.023622047244094488,0.031496062992125984,0.1889763779527559,0.007874015748031496,0.05511811023622047,0.007874015748031496
13.890170097351074,-0.015748031496062992,-0.015748031496062992,-0.007874015748031496,-0.031496062992125984,-0.047244094488188976,-0.08661417322834646,-0.07086614173228346,-0.015748031496062992
13.898359060287476,-0.007874015748031496,-0.015748031496062992,-0.015748031496062992,-0.015748031496062992,0.015748031496062992,-0.05511811023622047,-0.03937007874015748,-0.007874015748031496
13.906548023223877,0.0,-0.007874015748031496,-0.023622047244094488,-0.015748031496062992,-0.007874015748031496,-0.007874015748031496,-0.015748031496062992,-0.015748031496062992
13.909524083137512,0.0,-0.007874015748031496,0.007874015748031496,0.007874015748031496,0.047244094488188976,0.015748031496062992,-0.015748031496062992,0.0
13.912500143051147,-0.007874015748031496,-0.015748031496062992,-0.015748031496062992,-0.015748031496062992,-0.07086614173228346,-0.10236220472440945,0.0,-0.015748031496062992
13.92073369026184,0.0,0.0,-0.007874015748031496,0.0,0.09448818897637795,0.09448818897637795,0.05511811023622047,0.007874015748031496
13.928967237472534,-0.023622047244094488,-0.015748031496062992,-0.007874015748031496,-0.023622047244094488,-0.11811023622047244,-0.05511811023622047,-0.03937007874015748,-0.031496062992125984
13.93641221523285,0.0,0.015748031496062992,-0.015748031496062992,0.007874015748031496,0.14173228346456693,0.16535433070866143,0.023622047244094488,0.007874015748031496
13.943857192993164,0.0,0.0,-0.007874015748031496,-0.023622047244094488,-0.07874015748031496,-0.11023622047244094,-0.007874015748031496,-0.007874015748031496
13.94470465183258,0.0,0.0,0.007874015748031496,0.015748031496062992,-0.047244094488188976,0.16535433070866143,-0.007874015748031496,0.0
13.945552110671997,-0.015748031496062992,-0.023622047244094488,-0.015748031496062992,-0.03937007874015748,0.13385826771653545,-0.06299212598425197,-0.047244094488188976,-0.023622047244094488
13.947729229927063,0.007874015748031496,-0.007874015748031496,-0.015748031496062992,-0.015748031496062992,-0.2204724409448819,-0.07874015748031496,0.0,0.0
13.949906349182129,-0.007874015748031496,-0.015748031496062992,0.007874015748031496,0.015748031496062992,0.09448818897637795,0.03937007874015748,0.007874015748031496,-0.015748031496062992
13.958181262016296,-0.007874015748031496,0.0,0.0,0.015748031496062992,0.06299212598425197,0.08661417322834646,0.015748031496062992,-0.007874015748031496
13.966456174850464,-0.015748031496062992,-0.015748031496062992,-0.007874015748031496,-0.03937007874015748,-0.031496062992125984,-0.11811023622047244,-0.015748031496062992,-0.007874015748031496
13.96981167793274,0.0,-0.007874015748031496,-0.023622047244094488,0.015748031496062992,0.031496062992125984,0.09448818897637795,0.007874015748031496,-0.007874015748031496
13.973167181015015,0.007874015748031496,0.015748031496062992,0.0,0.007874015748031496,0.03937007874015748,0.03937007874015748,-0.015748031496062992,0.0
13.981075167655945,0.0,0.0,0.0,0.007874015748031496,-0.06299212598425197,-0.15748031496062992,-0.031496062992125984,0.0
13.988983154296875,-0.015748031496062992,0.0,0.007874015748031496,0.031496062992125984,0.10236220472440945,0.2677165354330709,0.007874015748031496,0.015748031496062992
13.991990089416504,0.0,0.0,0.007874015748031496,0.0,0.07086614173228346,-0.14173228346456693,0.023622047244094488,-0.007874015748031496
13.994997024536133,-0.007874015748031496,-0.007874015748031496,-0.023622047244094488,-0.023622047244094488,-0.09448818897637795,-0.023622047244094488,-0.007874015748031496,-0.007874015748031496
13.999476552009583,-0.007874015748031496,0.007874015748031496,-0.015748031496062992,-0.015748031496062992,0.12598425196850394,-0.015748031496062992,0.031496062992125984,-0.007874015748031496
14.003956079483032,-0.007874015748031496,-0.023622047244094488,-0.015748031496062992,-0.007874015748031496,-0.15748031496062992,0.09448818897637795,0.0,-0.007874015748031496
14.006965041160583,0.0,-0.015748031496062992,-0.007874015748031496,-0.007874015748031496,0.023622047244094488,-0.10236220472440945,-0.031496062992125984,-0.015748031496062992
14.009974002838135,0.0,-0.007874015748031496,-0.007874015748031496,0.015748031496062992,0.14173228346456693,-0.007874015748031496,0.015748031496062992,0.015748031496062992
14.018303513526917,-0.015748031496062992,-0.015748031496062992,-0.007874015748031496,-0.031496062992125984,-0.4094488188976378,-0.03937007874015748,-0.023622047244094488,-0.007874015748031496
14.026633024215698,-0.015748031496062992,-0.015748031496062992,-0.015748031496062992,0.007874015748031496,0.007874015748031496,-0.023622047244094488,-0.007874015748031496,-0.007874015748031496
14.037777066230774,-0.015748031496062992,-0.007874015748031496,-0.007874015748031496,-0.015748031496062992,-0.07086614173228346,-0.03937007874015748,-0.047244094488188976,-0.015748031496062992
14.04892110824585,-0.007874015748031496,0.0,0.0,0.0,0.11811023622047244,0.2283464566929134,0.07086614173228346,0.007874015748031496
14.049742102622986,-0.023622047244094488,-0.015748031496062992,-0.03937007874015748,-0.047244094488188976,-0.1732283464566929,-0.36220472440944884,-0.05511811023622047,-0.031496062992125984
14.050563097000122,0.0,-0.007874015748031496,0.0,0.0,-0.015748031496062992,-0.031496062992125984,0.023622047244094488,-0.015748031496062992
14.052751183509827,-0.007874015748031496,-0.015748031496062992,0.0,0.0,-0.015748031496062992,0.10236220472440945,0.015748031496062992,-0.023622047244094488
14.054939270019531,-0.007874015748031496,-0.023622047244094488,-0.023622047244094488,-0.007874015748031496,-0.03937007874015748,0.11023622047244094,-0.015748031496062992,-0.015748031496062992
14.059461236000061,0.0,0.007874015748031496,0.015748031496062992,0.015748031496062992,0.1732283464566929,0.11023622047244094,0.007874015748031496,0.0
14.06398320198059,0.0,0.007874015748031496,0.0,-0.023622047244094488,-0.06299212598425197,-0.09448818897637795,-0.023622047244094488,-0.015748031496062992
14.067009091377258,-0.015748031496062992,-0.015748031496062992,-0.015748031496062992,-0.015748031496062992,0.015748031496062992,-0.1889763779527559,0.0,0.015748031496062992
14.070034980773926,-0.007874015748031496,-0.007874015748031496,0.0,0.0,-0.08661417322834646,-0.09448818897637795,-0.023622047244094488,0.0
14.078248977661133,0.007874015748031496,-0.007874015748031496,0.007874015748031496,0.015748031496062992,0.13385826771653545,0.09448818897637795,0.031496062992125984,0.015748031496062992
14.08646297454834,0.007874015748031496,-0.007874015748031496,0.0,0.0,0.05511811023622047,0.14960629921259844,0.023622047244094488,0.007874015748031496
14.089452624320984,-0.007874015748031496,-0.015748031496062992,-0.023622047244094488,-0.015748031496062992,-0.2125984251968504,-0.2992125984251969,-0.023622047244094488,-0.007874015748031496
14.092442274093628,0.0,-0.007874015748031496,0.0,-0.015748031496062992,-0.007874015748031496,-0.11023622047244094,0.007874015748031496,-0.015748031496062992
14.100983142852783,-0.007874015748031496,-0.007874015748031496,-0.007874015748031496,0.007874015748031496,0.07086614173228346,0.2047244094488189,0.015748031496062992,0.0
14.109524011611938,0.007874015748031496,0.0,-0.007874015748031496,0.0,-0.11811023622047244,-0.11811023622047244,-0.007874015748031496,0.0
14.112232685089111,-0.007874015748031496,-0.007874015748031496,0.0,0.007874015748031496,0.03937007874015748,0.07086614173228346,-0.015748031496062992,-0.007874015748031496
14.114941358566284,-0.007874015748031496,0.0,-0.007874015748031496,-0.023622047244094488,-0.05511811023622047,-0.007874015748031496,-0.023622047244094488,-0.031496062992125984
14.119466781616211,-0.007874015748031496,0.0,-0.015748031496062992,-0.015748031496062992,-0.12598425196850394,-0.1968503937007874,-0.047244094488188976,-0.023622047244094488
14.123992204666138,-0.007874015748031496,0.0,-0.015748031496062992,-0.015748031496062992,0.047244094488188976,0.0,0.0,-0.015748031496062992
14.126990675926208,0.007874015748031496,0.015748031496062992,0.007874015748031496,0.007874015748031496,0.11811023622047244,0.1732283464566929,0.031496062992125984,0.007874015748031496
14.12998914718628,-0.015748031496062992,-0.015748031496062992,-0.015748031496062992,-0.047244094488188976,-0.2283464566929134,-0.33858267716535434,-0.03937007874015748,-0.023622047244094488
14.138257622718811,-0.007874015748031496,-0.007874015748031496,-0.007874015748031496,-0.023622047244094488,0.1732283464566929,0.14960629921259844,-0.015748031496062992,-0.007874015748031496
14.146526098251343,-0.023622047244094488,-0.007874015748031496,0.0,0.007874015748031496,0.11811023622047244,-0.007874015748031496,0.023622047244094488,0.0
14.149499654769897,-0.007874015748031496,-0.023622047244094488,-0.015748031496062992,-0.023622047244094488,-0.09448818897637795,0.15748031496062992,0.007874015748031496,0.007874015748031496
14.152473211288452,-0.023622047244094488,0.0,0.007874015748031496,0.031496062992125984,0.07086614173228346,0.07086614173228346,0.0,0.0
14.164825677871704,-0.007874015748031496,-0.023622047244094488,-0.023622047244094488,-0.015748031496062992,0.07086614173228346,-0.15748031496062992,-0.05511811023622047,-0.023622047244094488
14.177178144454956,0.0,-0.007874015748031496,-0.007874015748031496,-0.015748031496062992,-0.23622047244094488,0.03937007874015748,0.015748031496062992,0.0
14.177563190460205,-0.031496062992125984,-0.023622047244094488,-0.023622047244094488,-0.023622047244094488,0.07874015748031496,-0.1732283464566929,-0.047244094488188976,-0.03937007874015748
14.177948236465454,0.015748031496062992,-0.015748031496062992,0.0,-0.007874015748031496,0.015748031496062992,0.023622047244094488,-0.007874015748031496,-0.007874015748031496
14.180967569351196,-0.007874015748031496,-0.023622047244094488,-0.007874015748031496,-0.031496062992125984,-0.05511811023622047,0.0,0.0,-0.007874015748031496
14.183986902236938,0.0,0.007874015748031496,0.007874015748031496,0.0,0.007874015748031496,0.015748031496062992,-0.007874015748031496,0.0
14.186990976333618,-0.015748031496062992,0.0,-0.015748031496062992,-0.007874015748031496,-0.03937007874015748,-0.047244094488188976,-0.015748031496062992,-0.007874015748031496
14.189995050430298,0.007874015748031496,-0.007874015748031496,0.0,0.0,0.07086614173228346,0.007874015748031496,-0.023622047244094488,-0.007874015748031496
14.19827151298523,-0.015748031496062992,-0.023622047244094488,-0.007874015748031496,-0.007874015748031496,-0.13385826771653545,-0.13385826771653545,-0.015748031496062992,-0.007874015748031496
14.206547975540161,0.015748031496062992,0.0,0.007874015748031496,0.007874015748031496,0.10236220472440945,0.2047244094488189,-0.007874015748031496,0.031496062992125984
14.213268518447876,-0.023622047244094488,-0.007874015748031496,0.0,0.007874015748031496,0.06299212598425197,0.023622047244094488,-0.007874015748031496,-0.015748031496062992
14.21998906135559,-0.023622047244094488,-0.015748031496062992,-0.015748031496062992,-0.023622047244094488,-0.2125984251968504,-0.13385826771653545,-0.023622047244094488,-0.007874015748031496
14.228581547737122,-0.007874015748031496,0.0,-0.023622047244094488,0.0,0.06299212598425197,0.14173228346456693,-0.007874015748031496,-0.007874015748031496
14.237174034118652,-0.015748031496062992,-0.015748031496062992,-0.015748031496062992,-0.047244094488188976,-0.23622047244094488,-0.14173228346456693,-0.015748031496062992,-0.015748031496062992
14.237562537193298,-0.007874015748031496,-0.015748031496062992,0.0,-0.015748031496062992,-0.047244094488188976,0.015748031496062992,0.0,0.007874015748031496
14.237951040267944,0.007874015748031496,0.007874015748031496,0.0,0.023622047244094488,0.08661417322834646,0.1889763779527559,0.031496062992125984,0.0
14.24095606803894,0.0,0.0,0.0,0.0,0.06299212598425197,-0.047244094488188976,-0.015748031496062992,-0.007874015748031496
14.243961095809937,-0.015748031496062992,-0.007874015748031496,-0.007874015748031496,-0.007874015748031496,-0.08661417322834646,0.0,-0.05511811023622047,0.0
14.246974110603333,-0.007874015748031496,-0.015748031496062992,-0.015748031496062992,-0.023622047244094488,-0.007874015748031496,-0.13385826771653545,-0.007874015748031496,-0.015748031496062992
14.249987125396729,-0.007874015748031496,-0.007874015748031496,0.0,-0.015748031496062992,0.05511811023622047,0.1732283464566929,0.03937007874015748,0.007874015748031496
